I,II,III,aVR,aVL,aVF,V1,V2,V3,V4,V5,V6
1.1570672588523925,1.1360815004259444,1.0325158324493724,1.0235509821506217,1.0911026058840139,1.2721159211952373,1.1829679482798259,1.2706644670668459,1.1197439289563653,1.0323105499950413,1.0575094989944633,1.1867407035808195
1.1515220174598324,1.099796457369475,1.0458259637257643,0.9458437241572311,1.018799396939182,1.242547739076749,1.1652027869992196,1.154300563834911,1.1174213214257895,1.0652698466858639,1.158341549618929,1.1419719856276749
1.078704283309113,1.0465930032486979,0.9676421397597935,0.9003076464832712,0.9877009856604012,1.2252076449506613,1.105293932028501,1.1612148236881825,1.0327678028584475,0.9705285636993396,1.1047680003800666,1.1815191250450197
0.97695983436273,0.9489527354991049,1.0201295132808563,0.8039023940109896,0.9340144493146177,1.1265432263443786,1.0501691892647032,1.0518061630167403,0.944956859955685,0.8493252492538302,0.9924913586261878,1.0568601303587069
0.8972389828321592,0.8475412888477448,0.8679067302301208,0.7469590059532604,0.8470528265762053,1.0281824348937911,0.9019034277277413,0.9635137841784078,0.9241119161791544,0.8222301456438874,0.9639865318867273,0.9291948002685004
0.7590258611541607,0.7500116990958412,0.7239565484242693,0.6158622644923004,0.7376713749709273,0.8406017140735303,0.790640706629219,0.8682599516771481,0.8290961859615437,0.7460740899973016,0.8625436726839267,0.8556624796670407
0.6755580650814886,0.6436699089053182,0.5457943816029919,0.5631841803817744,0.6555235899257559,0.6927670583558534,0.6547284105891308,0.7971320462607383,0.7121541458937525,0.5371405512438606,0.6955445935848877,0.7805852936766311
0.5948144660957305,0.5366781749949862,0.49391191941850104,0.4196375047211064,0.5572869052515423,0.6440030275060323,0.5875239917969757,0.6689432096892164,0.5464259064876037,0.4857713005128064,0.6168243527438211,0.5556046957380851
0.3814453483083267,0.40652574447738105,0.347798944820649,0.25658450147849865,0.4270277777759785,0.41995249864709977,0.43637964332421664,0.4567350932471326,0.4133369738656304,0.3141348180753847,0.47644550873479075,0.3845237204191169
0.24444942096933717,0.2564177220371661,0.16437458490562762,0.11003943961773975,0.26468389638227446,0.3398055456727779,0.32754077653406577,0.34781779313440375,0.34644185907682495,0.22415999156864944,0.3737376555738048,0.287632766964293
0.16857483758504307,0.15775582405220262,0.044086882079517546,-0.10831491249956,0.10917075750354754,0.164817769644026,0.14928825402923854,0.21546351647193226,0.26720893089302467,0.12057837647633138,0.24244031035757754,0.10617758622471615
0.051490655539256344,0.0680062040632692,-0.11526787062908128,-0.12577305274770958,0.083578239416659,0.03099751388805158,0.03901005580982708,0.10000730057413917,0.18920660332012187,-0.04781086993999786,0.06201859105875522,-0.007992094378191695
-0.057539457299871574,-0.1016881037559534,-0.15418052305911417,-0.18947517294008454,-0.10756865191996158,-0.02398114609295311,-0.050378627683852206,0.07713029523799007,0.04719306957153053,-0.1576907238532577,0.04873587592946611,-0.0622933010836509
-0.18529266419197243,-0.14450924212270239,-0.1991349515988427,-0.2625325020588956,-0.053634696033921445,-0.15368709190695445,-0.13632091894259615,-0.042746269393294796,-0.06536622089201329,-0.09106139980874181,-0.08900462917161252,-0.16050956864984806
-0.2161166650322515,-0.20815234767599297,-0.26565142797156427,-0.4903980728782557,-0.11480768803359452,-0.20235489737036658,-0.2199863714770404,-0.23540406993638283,-0.11560210715595279,-0.18783417122678683,-0.15742725930719711,-0.21773066485290637
-0.23885759821941976,-0.23256155876385,-0.3419934302533728,-0.5219675811334812,-0.2268378795811237,-0.21016383166792857,-0.20775922721743792,-0.20029556395321169,-0.145072720744418,-0.24799324167264938,-0.11349077183474511,-0.2832304275318806
-0.36283627452218364,-0.26900193491366126,-0.373540072737906,-0.46211630633886597,-0.19482327397874943,-0.2991469609409129,-0.30413800534092744,-0.2343136991388564,-0.1387723778335485,-0.3274173462199015,-0.20897774001137426,-0.2812775708820992
-0.34861840138100353,-0.2882668059349717,-0.46481007709270133,-0.5424719873756436,-0.25976111233110194,-0.27614191161031915,-0.45296173180037175,-0.3439891395226735,-0.25197724068456984,-0.3598162907863422,-0.24430199342485404,-0.33649541777648556
-0.41911157469745747,-0.32000480230590567,-0.4739456243469123,-0.5272617969982987,-0.199053170666703,-0.35246394225318867,-0.3834922572607524,-0.24912838291182618,-0.22292512875266557,-0.36119247536722915,-0.3601268794140926,-0.3949637179029346
-0.3909096303692349,-0.25546083152703003,-0.4013249199284731,-0.5441922261476524,-0.2708922580113192,-0.3198634526272833,-0.35022625698767657,-0.28248702769495326,-0.2307871876761325,-0.3998526831127903,-0.27363517783032804,-0.30012410535057105
-0.4019505731081467,-0.2587175491060785,-0.42721066342034103,-0.4967962780559226,-0.264019915283916,-0.36859321619769386,-0.34735336455163807,-0.24474808894191188,-0.19975444788534055,-0.38328113703708055,-0.23710046552372968,-0.3945962502613243
-0.31417982729150573,-0.3152939380436343,-0.4671010269482306,-0.5853200123198702,-0.24195178024295858,-0.25058268924776017,-0.3361987527260548,-0.35833907487447314,-0.1950018786244263,-0.34623878452902374,-0.2580476700762004,-0.2920412049929511
-0.33175346940847195,-0.2252998351852977,-0.3867876820337716,-0.5137875259302259,-0.18947515798384323,-0.3693387316226661,-0.325819888495102,-0.297964011069621,-0.19994108555560658,-0.3245739406408186,-0.24714091519522635,-0.23561674538922422
-0.23695863233745273,-0.24247038415310657,-0.34531115527175493,-0.42822586533925505,-0.21223983704236635,-0.23947298352794444,-0.22486247441036447,-0.2944059145444296,-0.1090872827468858,-0.3292923634690682,-0.1850154415410603,-0.26021038322805135
-0.209875186474185,-0.10125152360795188,-0.32152937240408563,-0.4320251429002309,-0.0691857809121583,-0.19435324502365378,-0.2938063358336115,-0.2672084270773723,-0.06987186271861236,-0.31283760860618026,-0.18897318722096065,-0.26470712691159537
-0.19199829052095124,-0.15689588293651094,-0.31811020920632554,-0.44675118772550076,-0.13919423118722515,-0.2953055183846885,-0.19579632006196515,-0.2397129090246649,-0.05410740967396084,-0.20591161350353068,-0.17453234894968547,-0.33456887649581457
-0.2587644451432073,-0.12585572924369373,-0.3161352914618642,-0.3660703291172391,-0.03926812049742146,-0.21906904849632533,-0.15678130297039275,-0.24180220574389794,-0.04203439357221319,-0.25101990551843323,-0.16246911054505858,-0.19524960570648292
-0.1456526359007787,-0.08032713467476532,-0.24673807549814297,-0.3460031329439811,-0.09097582784703483,-0.1805795179425917,-0.12469395973230064,-0.156873802888854,-0.006058678347042538,-0.24226547431852877,-0.12333566668351796,-0.14015577997237724
-0.09795927970297653,-0.06749525247911271,-0.16262236406529432,-0.36907519117182114,-0.07296694598260016,-0.08748758162951195,-0.04427644639986158,-0.20309833601500027,0.006141024869639035,-0.18533132540751704,-0.05412606842464834,-0.12813776047295072
-0.06725507245015307,-0.04086053356185212,-0.20859546218420125,-0.28145487042360845,-0.070752208135809,-0.06667615915684,-0.1494592943431185,-0.07527599990004342,0.014613228063833712,-0.18721949808122218,0.0168540702552417,-0.13552281552221718
-0.11607161885840368,0.040462602821958196,-0.22495547414802913,-0.2622210683933085,-0.05913952760926962,-0.04468360559738375,-0.1166654580028806,-0.0705956987654815,-0.03330163904624626,-0.21949928174156946,-0.025643959656643858,-0.03425216733576018
-0.05444906781602097,0.00309055436455697,-0.16301898811050383,-0.27847797938496294,-0.005331725847922853,0.017865837193410155,-0.053440593227333674,-0.18593113278276135,0.04996023414183496,-0.18631399165656565,-0.031169955137931075,-0.03977310498608098
-0.061335218010223055,0.03930790353279398,-0.21951138079048071,-0.2203510114890728,0.030328895947842414,0.10755224260178504,-0.03078348731671342,-0.11315281285774127,0.0745988421622506,-0.2271904937965322,0.01783275358045137,-0.05861540085449521
-0.042317710944790025,0.06096613462346901,-0.14288683730215945,-0.29572602363444234,-0.0023668369494701438,-0.018315705234007384,-0.01567875340187852,-0.0591132256382399,0.04690087804742171,-0.18002065700523315,-0.020187164915134597,0.007153297233739184
0.0468402903537215,-0.01334001632853733,-0.15717678635201413,-0.20667439930446765,-0.03295689044035958,0.053257943342785,-0.05749292457204549,0.04485034784650177,0.10786544938548329,-0.06165001034652108,0.019209747832689042,-0.08294779805170908
-0.023059692029223974,0.09940433781501883,-0.0928646054766109,-0.23781561704773593,0.01114056705683135,0.05081522643574975,-0.035528481269458574,-0.07533830998071646,0.08316536454258287,-0.10780997304587595,0.031756890118316415,0.014275983805464933
0.017424046535498467,0.06632164372131905,-0.12414656180728616,-0.2612072334555576,-0.021476576256451326,0.10503527854754788,0.05579085034036135,0.0033104662672988343,0.046703046381241856,-0.21630834308991065,0.07474343361524068,-0.040078997711260125
0.06298104047942342,0.08260393157121089,-0.07581164777242307,-0.24071948660879683,-0.08662140965724584,-0.024584849926906318,0.02497070470940986,0.036574368863655685,0.13143856734059808,-0.11450705278232894,0.0776657175005648,0.020741072535224774
0.00721180201626427,0.01571269570358434,-0.01461647165456397,-0.16243172759970434,0.016740936270930602,0.004167032568413407,0.031080543158381484,-0.047512711559780735,0.06599110594493038,-0.0312159908565858,0.08817693516070799,-0.03820274588251345
0.0327732025699569,0.08671178453405987,-0.12238792784604295,-0.22777617492209898,-0.048479988753869135,0.033390863931048044,0.0439711731016098,-0.10143425452749355,0.11548343415013144,-0.13857789886402283,0.056044400353870656,-0.02559942192128
0.04744477554904149,0.07504461308627158,-0.14551162760400846,-0.2140079451614997,-0.006415561189442826,0.0382608465013165,0.08961376141368906,-0.10283953205288769,0.06403854176488533,-0.03726660685475689,0.14193144768152083,0.027154136874971698
0.05055967780186231,0.04160472784281625,-0.08339475409698642,-0.22147449086101006,0.02024835203461884,0.09963870248244074,0.011454476485088242,-0.12466149885976513,0.061191563160015915,-0.11709389404410364,0.09325828709745898,0.02405093947727434
0.0011686230829996984,0.15707001353194658,-0.10364917638410011,-0.22184815838893437,0.005958762049377095,0.0728958376789698,0.035249091989301436,-0.040586802082764974,0.12766203639379506,-0.08943771846134517,0.07158122038208416,-0.017884301607194997
0.061050543670201754,0.0933181387886556,-0.08911684658813515,-0.14427745886578708,0.013184071407150777,0.010654228328570553,-0.0414928976630368,-0.039520183375060684,0.08871525195429476,-0.08296718104086422,0.10776110783923266,-0.01722086600957126
0.12021556331999289,0.06558018925749716,-0.11796020193890105,-0.08702288161896961,0.08078091660820659,0.06821806882521009,0.015257300637477579,-0.07748485737780635,0.09905315739691449,-0.03218150593206195,0.08230646326483736,-0.05193309417743866
0.002764104642088219,0.08691650666768766,-0.06160551684789827,-0.11677652764757362,0.062211590491233947,0.033851453465848995,0.0471630297181497,0.019206257482077535,0.10453413733552204,-0.0877428199675633,0.13461065146465687,-0.03017156020640084
0.10958708305504636,0.11953826116729578,-0.07846837795921047,-0.1442888439301991,0.08535290973305128,0.07318892319571343,0.06485040378581981,-0.06809823087068827,0.1299773772432185,-0.06701154762751521,0.09080629319676485,0.06490767594439896
0.08378147969994747,0.13265137839122237,-0.17290963776959437,-0.12687772693463462,0.04171926502488404,0.1001299373683878,0.011030675688900081,-0.03392653520733031,0.18082761127308977,-0.08814331006848052,0.12457933963769857,0.060551001859241345
0.057203015721148456,0.11545990137842439,-0.08157616566890986,-0.16442461059999972,0.045707799946090984,0.0769725026846504,-0.011926788988696447,0.003368567505505517,0.11413436711857568,-0.010293829366707433,0.19359118632034134,0.053871581588081405
0.17424627787670677,0.14506390229380103,-0.05045729709802239,-0.16236474575193197,0.10481916149285996,0.16505166779497066,0.01412901027872375,0.003344763799120729,0.1367310850228978,-0.03360064737118581,0.17680002405141557,0.01412388035233243
0.12759216965648337,0.15956327449049826,-0.006880597448109296,-0.18144971748961433,0.02268344575257806,0.21105063518440376,-0.03524593527809236,-0.005430340153447413,0.12005529273630479,-0.09152524549844294,0.1681344882255449,0.01743946702745703
0.050485154167692156,0.0572561734301579,-0.07920416661839279,-0.06478565499812565,0.061361659785917316,0.1372773676141874,0.01262164461108661,-0.002609012357807639,0.19622187588291645,-0.06765077060447847,0.13512521594996196,0.11437128981816233
0.1099727588292081,0.09149042245807316,-0.08294202071041593,-0.12814999490210813,0.05869425297360712,0.05057715861383236,0.055991512181337924,-0.008743790616722607,0.1449130266356511,-0.04574884752200465,0.12715938452378933,0.11062299098771146
0.1370102181620216,0.07828006924788444,0.01070492331926758,-0.1334293828674586,0.06922972598375171,0.1788222597032203,0.08599166706145107,0.03367145159984429,0.11087223524022602,-0.033697010175895305,0.14420103916191324,0.10451845050774851
0.11068529847666819,0.12406684274697814,-0.06095895545292928,-0.11942877511932268,0.08525645632650347,0.2077965142179105,0.13235540975381405,0.03164382121905288,0.12363941320329985,-0.024445585908057475,0.19348891099627846,-0.010127282803524451
0.15357062681986838,0.18218217699690176,-0.021964029129784603,-0.07415848886209364,0.07349130140418812,0.1102770384201746,0.08134254145342534,-0.04678311529969219,0.20735099315223457,0.0006041041502879833,0.2070394165166062,0.10749821864094873
0.12820632252780845,0.15602213385418856,0.0018329179086859363,-0.09280554646121134,0.10402586292535072,0.13453834917842095,0.04606411215997575,0.019766178000440428,0.15451171541987493,-0.006547699117311776,0.18998197270134126,0.05879963481413656
0.16557949610422582,0.09408958605524285,0.021341337446784715,-0.05726561673540174,0.05051966907985365,0.16529382102162107,0.09187756426736346,0.006686070656943269,0.22544643033013625,0.044943917147502344,0.22239207809719735,0.14031686729351364
0.2047040342366118,0.12913554120057,-0.003207670550203744,-0.038463465034289566,0.10510444378306816,0.1266108875483807,0.07175777147886268,-5.646037910466239e-05,0.1243890106563935,-0.026045998612081685,0.15245354893482133,0.08428104853079005
0.12226317575180268,0.18685664470850458,-0.04488241990209953,0.022815656624448212,0.05646211960241096,0.17159301111724384,0.13679557835523837,0.0819304904813774,0.18884679425214598,0.02851396518023157,0.24023627996271296,0.0823811272999614
0.16628494737912883,0.13085346624223917,0.05838013207751308,-0.06952235593093083,0.13960173288082187,0.14117731400701916,0.14232558795574918,0.033752155952711395,0.15658254816583864,0.07554031470937776,0.12527858386314517,0.1493921767373596
0.1452991019267809,0.15382484622314926,0.0028426603050856,0.007667906611246066,0.14340303592889864,0.09072385973870485,0.03146737870837794,0.04856591404687534,0.17018281654574496,0.05827458169154867,0.1751030101511303,0.1040785887488144
0.17754182609415112,0.17562985346529483,0.008169294482383837,-0.018610144583178827,0.1083031176308139,0.09557118353094447,0.09542897998315973,0.09263323585881864,0.1805423800877519,0.06491860946302638,0.19860697242936676,0.18255552565094435
0.1296029342054777,0.09775081577108771,0.130334120354663,0.007176921019358891,0.10540393575950616,0.10539247027740742,0.20029862950102698,0.011165522566473482,0.2092725628071612,0.036636538114719126,0.20951618427420493,0.1761716877524994
0.1629674618444413,0.20680676231468337,0.089850100211211,0.10658177225091434,0.13090522892226542,0.08646359378178413,0.16928150849210075,0.03827938382667737,0.17585430052594941,0.014190951056934123,0.2410369568699701,0.17410351800097587
0.18704339460691566,0.1959776262991995,0.013519865618200285,0.08131688220475786,0.160235527209559,0.17163692963322483,0.11472940932771375,0.0591618572971514,0.2019522453019034,-0.002826777214406052,0.36583174616350983,0.18636799269012486
0.24134723370033945,0.21152509154606183,0.049665718110739526,0.05561655657692863,0.09495419430628785,0.12894185464604999,-0.0018552496982269923,0.03820625623137758,0.16814349984826263,0.044156655709278965,0.24371142337117796,0.24118592077849793
0.2600415970405686,0.157161781103239,0.0708191253473732,0.10793941329071181,0.1222645182121411,0.10655382692716514,0.1643991957907305,0.10285680539444529,0.17830201706365478,0.04994051595192939,0.33620726272882095,0.23883693298189226
0.16436223416527385,0.17240589912639293,0.059286741670485185,0.10346286859894316,0.20132628429377397,0.14954360256892282,0.15767972232023383,0.0625970780051209,0.2221557938173082,0.14293857979521116,0.24765099127178092,0.25725465103063494
0.19533713286265159,0.18623563015134412,0.01841393270668014,0.16668312457568474,0.16956023413591156,0.11823528808427153,0.14107135839627855,0.12611084258165037,0.2370626880653058,0.054831824063892,0.3357800095323085,0.2315093481894826
0.26499004011830257,0.22692304724699452,0.1509777302614635,0.11807397107090219,0.14105982435222067,0.15970737219425618,0.18845133025463545,0.12789591030537584,0.21542404605048449,0.12915155696972527,0.2698980069875662,0.3102049299939492
0.1626265499824156,0.22715243637743518,0.16144460129055557,0.1753507613533624,0.11755726110761662,0.18472244893881,0.1726344243622602,0.13980324847388031,0.2814947198631548,0.12675360103380276,0.3395744689990549,0.281857750970848
0.23631475853472605,0.23693329047167114,0.1495888679226218,0.16417694498121277,0.19173590068636795,0.12324055756282735,0.19209100349143896,0.17155141271998084,0.19501766343486265,0.20461367984728693,0.32506698611300083,0.2943686599738151
0.2611025416793214,0.3103174059328581,0.13289067206388105,0.19065333809255675,0.15532756950893814,0.09133867659900388,0.1639061679974452,0.14882374731767975,0.18217905786371485,0.10073155770348856,0.3542749941287095,0.3457819776656151
0.3277441546077498,0.2988486555773092,0.17248602066969052,0.2015850399117139,0.2334914909855093,0.0667195537725507,0.1743603069188137,0.20607344094645158,0.2756116450307965,0.20521894871328106,0.33567382113372113,0.32738023803521493
0.3134146753678269,0.22667272366756092,0.20393499562293774,0.20010485385199936,0.23693308375080357,0.19402863911538243,0.20529533702780858,0.1737293994933238,0.25805877555468343,0.10597727357379387,0.2888878004330026,0.34799778308168683
0.2802258244768245,0.23711774017555198,0.1417361675562396,0.2477936971882423,0.31673542807684224,0.135868904940429,0.18242872246128064,0.20276262027534087,0.2247655103957346,0.19695521774161098,0.3215584264530613,0.3444081270724842
0.2882374598442122,0.3385978615359589,0.18610539440550752,0.3015670911488323,0.21717254514898604,0.09523038018339368,0.15330909777165935,0.21259283963596579,0.3116087408488802,0.24035581231283487,0.36773079138219383,0.37156809424771103
0.30301030306548815,0.26613798255585625,0.1888386159403074,0.25425551083602155,0.2959398786693489,0.1183279115530104,0.15848544694604985,0.2630683497452353,0.2567306252276442,0.17190298488298708,0.4071385953131799,0.38558540441947897
0.3876153293996846,0.34095212219654053,0.25760018031430554,0.2810192649268458,0.24146223885777846,0.07583775178566146,0.23112150027940545,0.2526357788434835,0.3598360559585418,0.21899822577540953,0.3681561392642327,0.4538260074822982
0.3150048327955948,0.35737624495721604,0.25112997753277694,0.32968767052944553,0.25856693471549563,0.18375949052535498,0.1916759818970445,0.22016969318566473,0.2148559849649459,0.2567150288246082,0.38556421188739454,0.44453128523988955
0.3299103214542193,0.280426893754947,0.19456477343384493,0.30108062140559844,0.2992433083541056,0.14153941466522474,0.1979288793208219,0.3530038555952824,0.25701764198928106,0.19629035406367068,0.4356855802796841,0.4080637853787508
0.36715980879591514,0.29872641700539354,0.23769538357220055,0.3849882893381787,0.2874688437575046,0.11498988546011629,0.21402364077257532,0.33793529542382245,0.31595686656433936,0.1985270296634186,0.3844813041341182,0.4350373770088505
0.3566209968794589,0.32001509793061494,0.3564197904436348,0.39523325949270727,0.39393162844579693,0.06988390781295058,0.2798538043823762,0.3045449421443302,0.34398561002100364,0.19074044857238043,0.4341020926498388,0.4707256977786043
0.3626703454398056,0.28980673678835733,0.24721298093458874,0.28860446291305547,0.3376657362846005,0.22614582251572968,0.16890328363168122,0.34247395761217414,0.3609924946396498,0.2595040150930077,0.4380721336090041,0.40554508068811745
0.33308449256147,0.29229008112832183,0.30948117975930933,0.37221328960288025,0.32339122968207196,0.14337222825192703,0.16107572019814964,0.29154732649314546,0.29163438519938,0.23062967559582426,0.47643178825621213,0.4535194517700128
0.3884877105648055,0.32184109897070257,0.28695995544883957,0.370554551831369,0.4435490173735528,0.04564765644194055,0.2821026089155706,0.3766792009045354,0.31719781251097495,0.3509866686271378,0.3893945337068513,0.4961106943852432
0.3789073728698051,0.37790016072669097,0.382369688438604,0.4641780773718095,0.34266627995593185,0.11903532914704952,0.27248572888680483,0.3312690544165757,0.3409465143568911,0.2936971675138856,0.4532987664957607,0.5637092378477281
0.4552108868882602,0.332755787343937,0.3357480004296814,0.48351544257025036,0.36780582981687915,0.14535274770381026,0.3521199244603329,0.39817846727139095,0.36165910988701483,0.3481883489239802,0.5351090917489076,0.4417361157990279
0.4416652771749281,0.34824732922489066,0.3305677136832899,0.4100414585291351,0.38346085862724444,0.15601664951229435,0.28321215841828773,0.38694361486908235,0.31952864549059407,0.31575103250435116,0.41838247019565916,0.5422793518553412
0.4208806657818914,0.3436448710599722,0.30880290109405667,0.4446465947794261,0.3726775927268341,0.10580591354857395,0.2408738067391702,0.3494601866639989,0.33708982283869954,0.4093791305459519,0.4826420117350269,0.5613069133569476
0.4575529319425906,0.3133871247761928,0.3608624785690985,0.48243196089085816,0.431254041842472,0.20495787785865324,0.3217680541466838,0.42597992951404584,0.28722521340672036,0.3867638015843772,0.4891754646269263,0.5362506994708853
0.4221078653341912,0.4308855316714822,0.418906583402162,0.4827901049504911,0.4611549655348617,0.18372570201298413,0.3300881386738202,0.4168955523435864,0.3924195061351929,0.3323612120153429,0.47766188504695345,0.5203255828827646
0.4875515033667812,0.28423078879904395,0.4218854270854803,0.5389273191151928,0.3808925585038648,0.1637580711939681,0.3379183478398945,0.41203316973319765,0.3238211358276848,0.35317586299273623,0.4859601959985174,0.5820001978735937
0.4492418758458734,0.35506509221232774,0.3426502462450014,0.5602422838063955,0.41767161010694637,0.13681740669157566,0.34452221974303054,0.4384112335040623,0.3832088043381747,0.27707210610266336,0.4855173113486726,0.5656557977316276
0.47996711439755047,0.4066916690327273,0.479765171446022,0.5541460371379419,0.42920918114327633,0.09206960367743626,0.4272463259936926,0.4897994622246618,0.3771962787604817,0.3797867671145206,0.5997745999795223,0.6142808480928265
0.40632522509178465,0.3327268077578475,0.40800424128360796,0.583584223494142,0.3999147157409947,0.15183757576578116,0.3259235393381251,0.47382694327455765,0.38451247041432257,0.33528808593439136,0.5380425359971995,0.6814165146614626
0.4803868395244983,0.4145693291821363,0.3801249090623942,0.585219764567032,0.40956799971372004,0.16589102534704703,0.3628807065977443,0.45514849188371764,0.3651828597310738,0.41523784649951356,0.5604098057741047,0.6670708317550578
0.39901428868732597,0.44246937058504165,0.4400369247604494,0.5509315611684065,0.44962626562888075,0.1273668157866136,0.3490929690256397,0.46468057956166176,0.40520953270276494,0.4206870657340819,0.5192941799383441,0.5957974431739086
0.38834459098343554,0.3608301454241847,0.41360437950470985,0.5420577409061572,0.43644268998348285,0.19411387081605572,0.28254711543329974,0.48555779724345244,0.40701477662848234,0.36428462827521296,0.4880666926023201,0.6534365087700192
0.46482288159309526,0.40432911974660674,0.42179375811281833,0.5345710461270251,0.4849936760914045,0.2189878600909227,0.30850389624628555,0.43446158903856946,0.35098821624317633,0.44023050562634397,0.5863332455457432,0.6967278971081562
0.4426071309346325,0.35296069481974074,0.425080339277925,0.6023550812879569,0.507739832683195,0.1680377824979763,0.32477691151518645,0.47562833097575136,0.3869711545139767,0.36044532438998206,0.583817468270981,0.6048318484980788
0.4898432207296665,0.41706207326220224,0.45414902188791173,0.6080637449622195,0.4892118258783578,0.17436750292052677,0.35327585602815514,0.4962471184405419,0.3997174212337459,0.3755998047295448,0.5201519205973593,0.6572826368673435
0.5793911766037774,0.4001167481674628,0.44030041828434696,0.6148711238563773,0.49620157948813126,0.19440660338475044,0.31826368821074147,0.4397644776952334,0.35892428368664714,0.3385274881915387,0.5125230977147012,0.6269709837684244
0.45072892018037314,0.40406141388938877,0.3902594627159488,0.5603289948246227,0.45592891148950443,0.269822943563873,0.4321505041536426,0.6083733991984862,0.40733698480441866,0.39304073704656456,0.6169074983942145,0.6951892869763376
0.4599144839164614,0.44778938260466106,0.4923455948557869,0.557162015928754,0.46939208760897566,0.26309897644151425,0.3702180559900281,0.5294184176077215,0.43806394954642713,0.39287912247546825,0.5818798327473164,0.6962973357267941
0.4946093385552015,0.41006497724454855,0.44826704694442765,0.5823681247816236,0.5061998167690825,0.13406406972619106,0.33467416449220827,0.5974562856380159,0.4434565446050322,0.4461475074585404,0.5529283417888367,0.6599614208930635
0.505763038225118,0.4416664709252783,0.5259444320832258,0.6200600809807989,0.5135955377790206,0.18700809277555863,0.34592629094020366,0.5328902539304928,0.38738057650438773,0.4594094451658877,0.5830668781482409,0.698975975634898
0.4758848914259417,0.41000693405428534,0.49722245953643657,0.5794360230613523,0.49034714124019124,0.32039474786169203,0.37966423301271557,0.54484337900155,0.28520105533773316,0.4135589354943321,0.6223996142239241,0.6659808563575648
0.47238258815432643,0.3334716744023621,0.5006167960702845,0.5689578426453409,0.5126182598907025,0.19948940494747816,0.3507743969382556,0.544323947912571,0.4248681750967363,0.4673689624292943,0.5854815823882104,0.6760748960040858
0.5078607726245499,0.38660006925527285,0.48034647127027175,0.5196508724188227,0.4835160513364575,0.2909893588581609,0.3311617779989959,0.4775452136204409,0.4236484860911236,0.47634955409138807,0.5917592070236474,0.6672144811973719
0.49674856578086135,0.3905218633612612,0.5280647976815553,0.5642818620517783,0.44961050868648017,0.2392609737482164,0.32298856547188065,0.5019926846985335,0.3906941387255849,0.3372275282113472,0.5755198842882904,0.664960742372251
0.4272590209377486,0.3085092938545843,0.4536438713795295,0.5596981975962473,0.500345680724159,0.2732767984478811,0.37210100984447547,0.5701362934910996,0.39511481239056684,0.408242622704679,0.5348566619969122,0.6548068276951399
0.4630878340504941,0.4123233305052185,0.42105529416402876,0.48924775435567236,0.47194763792650113,0.20504432061851954,0.44428105801806533,0.5317025353960816,0.3677555752305536,0.4113296014084393,0.5048281083463607,0.7136725653285074
0.46300252121805446,0.3559198178416648,0.47673052350013007,0.5897349701206572,0.42372844560660633,0.2249459479903904,0.25014543169420916,0.5604666912154399,0.3525142860498144,0.4875485317367244,0.5985022645825645,0.6350983524632993
0.41166562279918273,0.3609881233958804,0.33651020446399593,0.46874959781023956,0.5110513303435862,0.2451613962804448,0.3472291635633714,0.5552809774634997,0.4078400311668428,0.44431393313410295,0.42936848658682014,0.6606841336394781
0.46134777557408546,0.3038783388637771,0.43597598070611626,0.5323298450979759,0.4912298205113213,0.22153149797537725,0.360766273608505,0.48520688184757693,0.42384623621695017,0.42278272069806067,0.48669367142479913,0.6545217466069403
0.408029903185612,0.33469219817163887,0.45650990820165643,0.4729494978351204,0.4995454408889193,0.21989862055892193,0.3198334164757393,0.4897967698901388,0.3783594086868953,0.38103930012699266,0.5143643575015369,0.673594355937972
0.478728988666781,0.3358915671166781,0.4227091452365578,0.474216473449759,0.4525864407679292,0.2832911925069357,0.4433943646100076,0.4936848587883415,0.3300912039970183,0.42156340514896906,0.46863693850641913,0.6277256341865459
0.43900744621855714,0.3030943915775389,0.49061544002856045,0.42102362004367366,0.5174543584464616,0.21478014130057715,0.3512227420521707,0.4565747138394516,0.3024780554494929,0.44837943524525925,0.4814267342462439,0.6539011740971334
0.4275023621440343,0.3108597961927124,0.4592673670510202,0.4151745035979623,0.47680237091641153,0.2778724716383015,0.26607410469314124,0.4745279647648519,0.37948473969606705,0.38593279209501735,0.47532409640000767,0.6351183999809176
0.39138477532794724,0.21538807503814686,0.4261219361572052,0.451468687350647,0.48923578320854033,0.19481944321892533,0.34290420120712534,0.5189174386250214,0.3730050443316222,0.34348832915700417,0.4731930056856932,0.6185335733249893
0.40365891801361864,0.3442088358122533,0.39592077320797725,0.3987359792395833,0.42580251556337495,0.20610377919138148,0.27516467657369886,0.5597084844616423,0.39008115568586094,0.4173658928961064,0.4788110128744223,0.6634041728322982
0.3164994857030029,0.23745775252365947,0.4544430850496137,0.37619908456960643,0.4321440693065749,0.24962979204449318,0.3521545522635122,0.5632585219294869,0.32510589722174354,0.3100659702129606,0.49692289502363074,0.6166392192980528
0.344985572902195,0.18619449059459428,0.3677679272579842,0.40967739492225475,0.48274764364637157,0.23920341736247794,0.3120292791895622,0.527450475455004,0.3085165888477076,0.35177835385395156,0.5091719872744984,0.6038645772513545
0.39980027139721414,0.22528422052655164,0.3711085348786106,0.38521910795078484,0.43004910577342115,0.25748259794698314,0.3543959578619121,0.4678351920812348,0.2993944331757707,0.3948583291273124,0.4429510520725598,0.6020647136019721
0.2863162422326736,0.22095816774894128,0.41408660100785055,0.34523640419464735,0.42542614895537273,0.21622354696819177,0.25613648665910527,0.4459040326236018,0.3525942484742819,0.3131902699937212,0.41722674242627567,0.5554512851957376
0.40336513804885177,0.26606984261769595,0.3986320443938297,0.33014718600243614,0.4708748546569686,0.21176673389348188,0.3051185513901142,0.5471843633407601,0.37552176337811044,0.3357031264813679,0.4081070271989424,0.5827632231207563
0.28541073320830185,0.19907777735134555,0.4534798906955281,0.37314381872484464,0.4523022569806329,0.19110074766637591,0.3501637628233705,0.4831742816816912,0.26817302711358687,0.28127062417337984,0.3639690458308715,0.5183217211484668
0.3823860162606677,0.23698754980659975,0.344660774110504,0.27757858947187075,0.4125830485768402,0.14205584954443085,0.26240425372723525,0.43054005831430286,0.2756345361404325,0.3928849633141964,0.354416405887119,0.48197012461159383
0.30612750603553085,0.17842096410313102,0.26175260501276226,0.28212133449001503,0.4651342522491005,0.1900259777097109,0.2217374476498119,0.4126506451084799,0.27250527577760636,0.3167495188824156,0.3630803243527485,0.5368791612381426
0.36600086837618545,0.2941390205437888,0.36501385799493813,0.26530000635145934,0.33775034778104424,0.25029684795797025,0.2415917261216536,0.5428123792938503,0.30202920445496895,0.3328535813839693,0.3749741194167524,0.46485848332558294
0.3300085385259325,0.2191402433046798,0.382157535718154,0.17217169703970392,0.38107896267865027,0.2010374894130791,0.25773845552411795,0.468534081697525,0.24011336561576158,0.2799307499481943,0.37575806931412337,0.5372471172231343
0.2510321123677144,0.26562150205089496,0.3097861466584975,0.13204002689540803,0.35672014780768646,0.21063028337897455,0.22430077611477472,0.4424321123098936,0.2933110023790495,0.3707479584353673,0.29942223571410675,0.4806740238370585
0.36003266974124465,0.13908062316393935,0.37674556261724523,0.19820494802801392,0.42131684230225774,0.2533145338417129,0.2505003339121346,0.4293139042024504,0.2708159048820481,0.3419222601063413,0.32822764850157304,0.5797050988040903
0.35970158747994085,0.19635354763847868,0.3772035167065169,0.21043435467488486,0.4178676716472709,0.15853784803713197,0.2713668297025679,0.4054712331457504,0.25178652555922304,0.2819114561358805,0.30942537949633164,0.4752598971504071
0.2877548762152393,0.12346364069139494,0.2595326861067089,0.16526120579437958,0.33790311402417894,0.21070188940838525,0.17927595495077295,0.4446517886551594,0.2701704396252232,0.29015617892639073,0.3603151522730799,0.44870631005493694
0.27076880973536893,0.17539003009405146,0.2584685788277448,0.11746919244492911,0.352975824359551,0.1696649786205758,0.14052398985678294,0.42610038876244233,0.19354633480733127,0.19429729638823473,0.3124311642946027,0.45135766491045354
0.2675354045370708,0.1708121709387275,0.2151369722209471,0.0950563843328116,0.37403859152696173,0.23977983449304116,0.15955063115753898,0.4496515177232631,0.19028402929712768,0.26328342353121836,0.30172030364167346,0.35969159501304404
0.22527513621029305,0.07273546215205538,0.2855722505546995,0.13804413048828107,0.35238058739129663,0.12660351408345483,0.12133611579824569,0.3056721455984926,0.26445371617795305,0.295581767697979,0.20343599160574685,0.49460318157048766
0.30511373896566146,0.08278759629667297,0.28443491625551853,0.07581332644784669,0.3365242226989291,0.17201799182252514,0.14816840900742925,0.39969345888244445,0.19873764650845852,0.2168349425865949,0.19394404057449738,0.29365622118433493
0.22842995981115102,0.07384140011405696,0.27063899417243864,0.005727801683420649,0.35570310580765246,0.1630125669984049,0.16149701407839093,0.37156955276975856,0.16844686256025496,0.21727008920494806,0.22278905950918418,0.3854814367967506
0.24199970529632334,0.05303948051290373,0.18065371946604417,0.08356935687095576,0.3826991408329837,0.16818448274398567,0.09205441607091447,0.3902157660841019,0.17483094421080933,0.2057700295135023,0.2345517051417814,0.34343020312627687
0.20378631136075695,0.07641226562029776,0.19309408826050903,0.04999080102700701,0.3118798218111448,0.1564924719244608,0.1575734682757805,0.3682976668660808,0.14042075773923496,0.23122830422070267,0.14411880669243135,0.39576753264307535
0.20423409322470992,0.06054441430243246,0.15536715756665115,0.04087640047979344,0.2624388190475226,0.2580993041486109,0.14520481297309312,0.25195266494310065,0.20086056310140823,0.21373059065619837,0.20345841175378107,0.34216445852698685
0.17044883153754595,0.03493751407986982,0.13945720808920584,0.053491360353224514,0.29167750943830134,0.16642504480705236,0.07213857098036772,0.326271576664145,0.13334464148897496,0.13109046202942706,0.19420234880937223,0.3049917150033803
0.2714429847994951,0.08984601971251693,0.14355775828945277,0.05129288759336532,0.28845139666830794,0.16715726808347522,0.11338295359877475,0.3821326067569489,0.18587365717344656,0.21938557948845805,0.1873481586163835,0.329411656505284
0.206309999098825,0.10189307380001586,0.12580281506111135,0.006841545920075391,0.27091925758835533,0.10966483954895946,0.0543995385654406,0.3412973527607712,0.1755497987735079,0.16682622937933117,0.2151994181627743,0.34554029750050486
0.2483509476331926,0.02314330006634809,0.1806476138955925,-0.0357172593784776,0.3036272233630949,0.11218406264674777,0.1411894998201944,0.2635257254860836,0.1353606051307706,0.1748830592653567,0.09085788082451082,0.3783025430400868
0.20334518607540167,0.048217976626146714,0.2007038705385035,-0.12699565203022387,0.2996626161893286,0.1340923162381696,0.09645577172111926,0.21741107307499102,0.20285317468184585,0.153398137680518,0.09630367300915914,0.2883823424337935
0.16906551011449497,0.06605326619946728,0.20321759953359558,-0.039307576873522494,0.3008125514646159,0.11221097112586559,0.12117207406921213,0.33727307655238514,0.12710045436140674,0.1398268551167328,0.14754466371991662,0.37004542205888996
0.18053756501829477,0.05246135953833307,0.16861307400067416,-0.06778355009998041,0.28090774506516325,0.18336834471901273,0.1533202517040193,0.28309817303457663,0.1326511855986547,0.16495076231944475,0.1005264793639465,0.3119889482408631
0.1670061949349391,0.030173331801205076,0.1341291815546718,-0.017131743950276543,0.26864776226281994,0.1341671324077312,0.11586273372850915,0.29167117278060306,0.1430454013010151,0.1031748114197179,0.12822028983487896,0.35981371304771914
0.18765425072502975,0.08645693026176243,0.15809603715919135,-0.027479756763383805,0.2188782549973254,0.1373371549994702,0.08118458376502188,0.22890240221273175,0.07718175767961744,0.09118897882082888,0.13047041281692495,0.30801564041787194
0.16850127700226078,0.08482741738818916,0.17887006073241563,-0.06805468602018272,0.23852470107107596,0.14813810991775558,0.08801608348899918,0.30206335899339165,0.05227599112038502,0.13279566558787534,0.025049893401188756,0.292543780570246
0.1690249206670031,0.07546718824263073,0.13608186814639878,-0.03844177318262673,0.21605449139245395,0.11279175894820953,0.04973830885334022,0.24080553348882858,0.10355146986793948,0.1815498116131615,0.15843681250213124,0.34788844842188676
0.12117624598270643,0.037944334568408185,0.1474031205444004,-0.10372810634423546,0.2535912658864838,0.0953444906936029,0.062391063744751,0.23496618683563364,0.05479990187819536,0.11655497587662025,0.14486526618978635,0.251382733765681
0.14326472540034926,0.12253387240684521,0.12777814418829678,-0.10783060619231018,0.2341686628628715,0.11800159239361908,0.13201357845891812,0.18663395805110167,0.03328060448297774,0.11667646590568007,0.016895556344227864,0.2603978423733099
0.24535354453722524,0.1109883616552137,0.1147354498331782,-0.14524540545959905,0.2331100522926579,0.15326797677291118,0.029362633161739423,0.2371061336626121,0.03561822611228304,0.1151848597377643,0.047782500993183305,0.30383140736336134
0.14578604908457626,0.024793757544716064,0.1363481713218194,-0.12715438754383132,0.24929062259471313,0.1377290255706569,0.04445397421203862,0.24008572341318035,0.09812036417294479,0.12187073821703627,0.09836360409604851,0.24415642858518838
0.12844221136810507,0.034659375705944725,0.0827619413735254,-0.10886269814352807,0.21689573281579566,0.10402406811690648,0.054375947710737685,0.1791787731980638,0.13087036471303812,0.09826833879619153,0.042765619983980506,0.25726326491879153
0.18621579298477647,0.08536225183385561,0.17614171303162662,-0.07659800903581615,0.2612435167554313,0.20590839186955562,0.055629749672820826,0.19178420508264254,0.057321328960870464,0.17172749174169855,0.07253360455230183,0.1887224897818129
0.23067175470949874,0.00607827226092348,0.05847351525533382,-0.15169625946731002,0.25716310027495476,0.1519394547687418,0.06771075067683625,0.22990496387750226,0.048604608831615215,0.12189117181495773,0.01603947252451469,0.2990723977436768
0.10949639619740015,0.05291763735755278,0.14604132264489397,-0.08993484870011322,0.18401041676648255,0.16281156079404138,-0.015140553632264693,0.1517192960744383,0.0592134173609414,0.10951409052170319,0.09653762346768296,0.27882269496946405
0.16181634778496087,0.03873657691531644,0.06389300745127459,-0.027418232950730023,0.25997525966867924,0.19783277128261503,0.008668533494373307,0.21485770928586023,0.07032348999287351,0.1193284314184456,-0.006894561803502327,0.21946245090724673
0.14392819893111633,0.009095649475900783,0.18947736460944326,-0.17815017589428322,0.19908952872806873,0.09160611402892954,0.022964132496312763,0.2333225690267232,0.03857870382131493,0.13140031708347877,0.03449019694795726,0.32052439257370513
0.09647621063919883,0.027920440205236235,0.1600528175600999,-0.13303538719580435,0.18254230866081272,0.16980895960394604,0.035899208706894996,0.19066214887219948,0.013686071801521942,0.1456676433793652,0.04648795657948242,0.28121728320669825
0.20215352651311494,-0.02463132848757733,0.08495181444256773,-0.12044528825250715,0.19405643928545072,0.13818676216452883,0.04759128148211494,0.127450108991014,0.0571301417213311,0.09281878709251876,-0.018458293816472474,0.13823479743720848
0.17070271477842733,0.016604232308597287,0.10030942331508025,-0.07851594429450029,0.1577969787029024,0.1382684828946288,0.03620360746720463,0.17857475628697378,0.007443193303946857,0.10193292843134208,0.043378420575950566,0.2335328557260408
0.17541772795256966,-0.03999504807225481,0.06991784680984778,-0.036175140577935756,0.2115247704549736,0.059642531204546954,0.019739443209245852,0.22572614163562624,-0.006741603738451777,0.10629576092781491,0.041029375200545205,0.2594862076770748
0.14152809386812806,0.12989398922309156,0.11693738510386405,-0.06449933148546076,0.23924588627838872,0.08844296805865062,-0.02331259385186672,0.17618881309371462,-0.011303270017926512,0.07015255872647032,0.05706101824816028,0.21330512607302562
0.19346634322972497,0.10042917356855688,0.137627671412505,-0.11355419775823918,0.14129265083426215,0.12176119102279276,-0.03467516783095081,0.11478469727847286,-0.009972701480256163,0.06736781719475568,-0.027521030921498008,0.27111749912942157
0.15266513784151098,0.09077131558054252,0.23243320486607638,-0.14352700442146868,0.20687803742651475,0.11827158908509139,-0.03778106093251838,0.20102241445211438,0.0014113025543480886,0.08480249703468402,0.08121686976778955,0.26723401797427904
0.17065109907255185,0.055598296281150955,0.05956908420118416,-0.10737701508118658,0.20994549482711738,0.18465512890245195,0.0446623624972579,0.17868157967342016,0.003270713313109956,0.10513426787857577,-0.003773685520244067,0.10821235755470156
0.13129213658627414,0.08469930634737026,0.1751148219338482,-0.10267995915050138,0.21024972759467353,0.10177363896954204,0.07419283251941258,0.2186566983750965,0.02436695641426592,0.08642678191378322,-0.0020077811705905887,0.15555809936237502
0.12821176742194643,0.09722140357166881,0.09521725916336073,-0.08685391756614749,0.20741468626379084,0.12713379479022335,-0.027273786961069687,0.2180448566646846,-0.017697545278228713,-0.008008281248281419,0.00799222775388619,0.22767594533150892
0.23742671513056884,0.08892853624849019,0.13380773795735368,-0.1288841165039403,0.19784931928094027,0.10247326240664797,-0.05082161974423577,0.18467264703851338,-0.004161205263753501,0.03994341972075114,0.053041023088210446,0.2468297486607734
0.16131680468203177,0.0870165202069121,0.16127546534102521,-0.025082508645928942,0.16407592962642853,0.05933376866321517,-0.009020814992254017,0.13997478937331873,-0.02022920647247164,0.09194952883511072,0.017861770253995823,0.17403433346869115
0.19671863317998556,0.016736978806680666,0.14741591966563464,-0.11213195066581497,0.20945782606374785,0.09904813933533584,0.014839477632911264,0.06086155946569252,-0.005797737987687009,0.06830487528253258,0.019689608627354617,0.11870847309046083
0.18474123148120267,0.0718536586830657,0.14314401844443297,-0.04949649442940899,0.18776091802287753,0.11717838027285664,-0.017384193483688234,0.05846345159190929,0.033495811144714206,0.08446578814461926,0.04929618982224528,0.13550611306953633
0.16935320821232352,0.03602164083719871,0.11694130385987157,-0.06331345294518033,0.2019016793891598,0.1859379189696902,-0.004728039917467272,0.13406618922555763,-0.027397265497986215,0.06492565533367983,0.021558049419127073,0.24932039420886812
0.16836655633215505,0.012796892639068283,0.12649239110493635,-0.11149106087978887,0.1828344644444745,0.16419292819323003,0.03256954063741427,0.11062771550584988,-0.07430770917471774,0.12608368838232928,0.009562970091906146,0.1711759751616967
0.21823769673332427,0.01670948277359725,0.13490399655072874,-0.05838223571801925,0.16075831817759914,0.08804969872185907,0.019968637757436236,0.13423812909262225,0.01747474725158062,0.10193940298624922,0.006318299254435173,0.1576233769948501
0.18078455116879094,0.08113060526140856,0.1824201881321095,-0.054661875216522146,0.16625192478672957,0.072216552106524,-0.013805665714965354,0.08983851351021419,-0.0009712179510151716,0.11447453344851545,0.021548401901211645,0.09967570313123938
0.1890001400708442,0.10830434897441793,0.06619150858084898,-0.057502860887036523,0.18713930734050213,0.10878632698954954,-0.04831106720071639,0.0876737396565914,-0.0019281874706544803,0.037113732227788035,0.04227428747489617,0.0938037978359261
0.19818737261300323,0.015162035459445332,0.11073233404053479,-0.011042103264244705,0.2002216150289016,0.08549336802174906,-0.0003063220250650385,0.16995731937413433,-0.1055617487768225,0.1279060537820779,0.08353974334674286,0.1993890321676568
0.2487292246311192,0.14070843763854102,0.07894066951534442,-0.057837418840980634,0.09496462812779075,0.21372520935379372,0.05114840500706867,0.13566113702495733,-0.06268353436162181,0.05803388803176379,0.041730901221482014,0.11809085693048146
0.22961302203416786,0.1323481467170712,0.09295679072908102,0.07156374384650334,0.11508957043395746,0.14501242884768747,-0.06288316384431042,0.12453792812725173,-0.01098804359885607,0.15985739897730217,0.08160231628110319,0.212326629642122
0.2188141964651075,0.061826574468227515,0.1018380154321889,0.019155234514902662,0.10071139724746697,0.10683090967053037,0.07168653739779221,0.18826226001517832,-0.031241212911126987,0.0687433482520113,0.07230025427320395,0.16036822922232385
0.1806136210980426,0.06113332814920588,0.18704032268448548,-0.05907689040585502,0.13722237987898886,0.08630870494279447,0.01634854121034168,0.08689864985044299,-0.03640500668556976,0.0787888818334805,0.10130825844479999,0.14782282637486066
0.14774322744475316,0.07910270804272841,0.23477023919737738,-0.11818113297444338,0.13038107054593762,0.06384476092439981,0.07288938871696238,0.13373170138107082,0.011938516432403,0.012129833242453605,0.05573227137164766,0.17814943016826437
0.24770108302293734,0.12330265925447312,0.2015471638277633,0.040673164637310875,0.158765850785528,0.10550104711925411,-0.01589826292564129,0.07237449955035166,-0.06774125581618573,0.0946681316893053,0.03461151229773165,0.12290268277499909
0.2499217015573195,0.07192644087695772,0.09112307371333832,0.0046842610101277705,0.13922002591017613,0.0006475664181873269,-0.020253618800491445,0.09198190513125368,-0.04718467528251164,0.05010080706986096,-0.03078178208901642,0.15170855336063718
0.20464274459040227,0.04588612327118256,0.14824944966893708,0.0027375855551714733,0.1944898588980638,0.0938278557395789,-0.04156534577699366,0.11186443426539641,-0.019755518562850124,0.060099142401331476,0.04414871680351297,0.21823245193877627
0.23481727834109556,0.10570741211751758,0.09642947334514124,-0.03581810799924452,0.12442786108538814,0.0914334267394572,0.02534074590451771,0.09657056840928575,-0.06070357389319583,0.11818976867921137,0.07169381362251087,0.16526417895726653
0.24622983722302264,0.013060126002179125,0.1676463727433689,-0.05027707668156012,0.11920647118456247,0.17615040473375113,0.022705282095571492,0.07288270405078832,-0.05620326769579301,0.1745672103648253,0.08063071351737447,0.06303746171316944
0.24955371488775727,0.1027286885277678,0.20554470565063676,-0.06328847736386652,0.1133704042906386,0.03797028705793984,0.010451292933127309,0.08797312198791864,-0.03725699342545362,0.06492475279201165,-0.0022079986001756207,0.11804569374490084
0.2544949799970265,0.14544161251050772,0.17685793505944028,0.12252909661132774,0.12974002567592174,0.1517266329620745,0.02462543286054569,0.1392762058792388,-0.054286069676175316,0.03779646253488285,0.030419787715679516,-0.00589633564388934
0.19743407677511712,0.11416963556455924,0.19074720420331304,0.08685672543548868,0.14399525088468065,0.10014703900211906,0.04150791594438208,0.062059363686501966,-0.0378733429174553,0.001487519031679378,0.02876042616953908,0.08929181532154319
0.2815066649197815,0.1353382801125296,0.1472251570801707,0.0018959599812782995,0.11950846809318905,0.14874468681322003,-0.007891536792372752,0.04071800466005548,0.010942489313605506,0.06248017215808766,0.04493907641600336,0.16673288842250555
0.16580713438546646,0.1263803163360101,0.06821970393704,0.10471763668672478,0.10221711042416863,0.08585678578302625,0.06573002684556276,0.15792962409064332,-0.07438345550344681,0.10216469124434639,0.09571779864332822,0.17689108780987853
0.2554542691359483,0.1379488321192925,0.06890288921781168,-0.04555872410506597,0.08496198868166402,0.13613748395541944,-0.036190745439155056,0.03406604621741698,-0.05035111206720341,0.034625162949457396,0.08951078376547966,0.10607337380458272
0.24050225026879551,0.11718516274292566,0.1530973916112611,0.061629571976690674,0.13721839939012326,0.15618660648973998,0.012247908676756462,0.0759628714039994,-0.049847125930702445,0.049357105404702846,0.11593311927134053,0.07399429463024233
0.2569549328706234,0.08087791559972381,0.18387504147827297,0.06394803493948907,0.10977502716416776,0.2307842295197097,0.04857746084148176,0.033449563444017505,-0.03691643368169305,0.14420099756487037,0.013820483117977421,0.16146990585164
0.29967526870819916,0.10692161395835363,0.2155791954273055,0.0013218007395374488,0.09272868744833165,0.09058470247491537,0.026010515232645887,0.04582705862314735,-0.00736450516434484,0.13400340175996206,0.010299779674355317,0.08383376398344163
0.2832003458568049,0.11497706349829048,0.14520866160167262,0.019228455877854305,0.11585392165279101,0.12156136403353549,0.04634030269536789,0.12635988703857115,0.03781182026004888,0.13675165425809171,0.07332258605756044,0.07695246837611552
0.1722996565740306,0.16963521985680782,0.16473779808773198,-0.00396910160827557,0.1351072925820191,0.12501157142155636,-0.02298136169621128,0.11189840949604056,0.029261277714633424,0.04896101404349149,0.04791897310313291,0.0860793063149575
0.14929609091910578,0.18611136029039319,0.17355596494488096,0.04118625621602574,0.19332157164614053,0.10701533048402383,0.03213360242757661,0.0664750553075399,0.07718371697280084,0.05961850821677565,0.07685175092566524,0.10183761168031945
0.254822670764215,0.1403858920373377,0.2099222431568428,0.09376307922034315,0.17679383997092438,0.13071112081228986,0.04574350710175963,0.14153716937923708,-0.07456461486746499,0.04764306367264221,0.07893168385153651,0.03929488919486028
0.17723621109922233,0.09587574982507555,0.16074507337811914,0.08058792479605317,0.08711435459105164,0.13868332057931554,-0.007933440114837006,0.055864716388011104,-0.04074100512650475,0.07764635281979572,0.11126602764377308,0.07239192507309891
0.21914077762237483,0.09858570985489534,0.11628258589171206,0.05648408473209557,0.10077521047493587,0.12601968958876789,0.07747026909853605,0.12057268641926945,0.07928599451999674,0.07998586049258895,0.12338958602421775,0.06437527148932895
0.25460247666645336,0.12175764933383612,0.2128284038333989,0.08467539253216011,0.04644976505735151,0.07062288685939404,0.005400737944167675,0.08979395140342451,-0.0027656133564264037,0.10966798886982805,0.06152368934477887,0.1299737544672123
0.14924125204032673,0.18574491324734055,0.1838361294667218,-0.035600074068166246,0.04454528429147877,0.15780750424378184,0.02557877967490446,0.11610010413514654,0.00350893742276003,0.11931541068728965,0.09791522455271474,0.08365015818019952
0.1289177026336471,0.14575861258753603,0.1830800157038412,0.11987677797503869,0.04692172254522363,0.08839782774503512,0.009406499963106184,0.07017949634590705,-0.010608838454706155,0.11486341535274708,0.10538781265093874,0.03433974682146898
0.22815906751490428,0.13198713208805293,0.11066850802736596,0.03325725263961476,0.1417648538405568,0.1495472363797733,0.07454059130664503,0.08591093106710379,-0.017375991465418544,0.1255983738932511,0.14143942648353208,0.031858985717450064
0.21831117465096983,0.10555450375232735,0.1667555087363918,-0.020413836023778067,0.10306197964817639,0.19938554334039393,0.03766537365960442,0.06371960262302631,0.05411223987429348,0.13195022677614168,0.09984003462280917,0.06422362096088297
0.20524001442204637,0.1722326215373682,0.09170248146241283,0.016219303000334365,0.05555380949896772,0.10609998151503827,0.0980531381721105,-0.04044432300556163,0.00852571386556243,0.08151366794891948,0.024194024350951075,0.04018146442090632
0.21637312886204946,0.15037841878834354,0.07931138724435831,0.0032277400522111544,0.08197887276613323,0.15815070149558724,0.11157231240429664,0.15816176427638642,-0.014754248859262886,0.08274639316485308,0.10407200244689233,0.08485127997530222
0.1775531265184873,0.13851138071894972,0.15748532921252578,0.03168175322070211,0.08654922580000383,0.1757161377593957,0.06594311055922768,0.08736810519665489,0.013344389666052007,0.06745739079899034,0.07821705699032715,-0.052777728016319664
0.14910385406615287,0.146182096060325,0.1489451687079128,0.03834833106270138,0.07973013523152161,0.16905043237828554,0.10662792769396214,0.06515130158402925,0.012512164424648944,0.17868157123969625,0.037420342841204726,0.005663590131363932
0.20503200370811278,0.2103248034344601,0.19326033449762944,-0.07322775094576371,0.152965381214862,0.15492594275071828,0.16089211515850751,0.0565657104272494,0.03820509567678149,0.09110645292200087,0.13224142704949574,0.09709358959126835
0.17018387957212958,0.13897053374036286,0.23185409249583333,0.07227478631912049,0.0331287265322018,0.17915483925881415,0.0225492103251757,0.031837544013287186,0.0393570644446723,0.062349169797184585,0.07042754341357232,-0.02366037421539127
0.1409892738579508,0.21367452824191846,0.16693394841662648,0.08880398580692171,0.08375395927767186,0.21096651948980555,0.02395027898290306,0.03270505728512112,0.034403756336911645,0.0647071506487061,0.09578597975286328,0.041549800858742575
0.23085988224852458,0.19774799370618262,0.24725297007645292,-0.027998203352816612,0.10736025096359153,0.14326064958846815,0.17228994063232736,0.05896053979205076,0.01985927062645994,0.08308564284988781,0.07318232604375371,-0.07354259202515673
0.20618886768627223,0.15249418224684427,0.14267861687009042,0.07260781547381696,0.11483977510604684,0.1827579355072197,0.06629633009877996,0.09461607735363696,0.039921365798128126,0.09819646131404115,0.09806109428111806,0.004984230908855411
0.2252640423777645,0.18718360355434133,0.20222006061578676,0.06064492575933759,0.0213312373170059,0.223918669743612,0.2259876816118557,0.06785863452627687,0.02843164398629893,0.09480425693435983,0.10934684605229263,0.05242408987349679
0.1657991260448964,0.1492909727913789,0.11289296408178835,0.047498762593628036,0.10348764539665352,0.17229555370398333,0.14674703672049888,0.06358757664582909,-0.005338207082349156,0.10257150937619075,0.11564621250176797,0.08555345422916796
0.17931404245322533,0.12347248588394497,0.17437005012965698,0.06995390744808326,0.052643006143203316,0.15064913764744403,0.01930135933012198,0.08779626333928073,0.04191194748193137,0.1668669776770504,0.1762294307850903,0.060714637123145586
0.16459757444668427,0.14775310989045307,0.15501514850730985,-0.0577886563457495,0.07636118577969965,0.23764862170340792,0.1553180708642189,0.02452538579008199,-0.012446781171911657,0.07539424503250705,0.17108466956397514,-0.07142001098017099
0.16915988899277548,0.12475821572976918,0.15993191913623514,0.0264470341517151,0.0410031324521239,0.23859370732140694,0.11753342989074166,0.09677371965760297,0.04661503322580792,0.1076649663531307,0.07820918164144201,-0.014855700226377328
0.2148026285115227,0.18322388076583243,0.1953192615540981,-0.04825974476539132,0.12375938725346051,0.2536643031925759,0.13146110547826215,0.03668332409713661,0.020455168044692686,0.1587533861237021,0.13775472235029892,-0.020148906896575912
0.1737019711568297,0.1661726480551424,0.08673756781434973,0.08841564235962876,0.20612456952478944,0.2166512755575784,0.16642008211700285,0.07916247777498867,0.11154251279170797,0.053694166664955884,0.15354963052540882,-0.038940759056670944
0.22214946813587216,0.19077225959467553,0.175291266913896,-0.05233899063915604,0.13331998353742616,0.19384211042738575,0.11073550728245216,0.0280104454754591,0.07718197006010058,0.0672281454836253,0.13610901307684556,-0.011591824527408215
0.22208174751228574,0.20389562050948903,0.13501168935282498,-0.0655103962740642,0.08845357071654014,0.28944604675346586,0.12690298009659332,0.0938583249532931,0.0475447754004609,0.15399622700338433,0.12451415231691638,0.02233374440891979
0.2940220633644579,0.05103958158438646,0.17663780084440694,0.0289698940234736,0.038816453381716166,0.2819286359532051,0.15055934861216969,0.007316765560267637,0.04999430355462403,0.06889564204235578,0.10935563114797243,-0.04069984000839023
0.15088545245886542,0.18996971010001457,0.1896556551892449,0.0059357677691383864,0.1323774133427041,0.2674139101363916,0.07775166260501143,0.13311931666155424,0.1018704319902897,0.1314525165292204,0.09411253581294035,-0.020766813546233307
0.24848736082431114,0.11010777368942264,0.15708048450908452,-0.020705539030470694,0.14588726222469905,0.21691257724839874,0.14180015164400478,0.03795720376989663,0.037543577723291324,0.0817821115718765,0.07724142373258598,-0.05035615382513861
0.20898466065759355,0.1918435131206344,0.15828675309496287,-0.018069389783185424,0.067959718115777,0.24717898316045775,0.16937506308061914,0.039911814721601296,0.1305742907810805,0.1498269575487874,0.08135564479341802,-0.057258318568172706
0.21431278121076633,0.15492819849178893,0.12543432933973783,6.611248203671006e-05,0.14236080958433198,0.20948130641076776,0.16487185905330154,0.028247667719234336,0.1318411163324301,0.19500022745639287,0.13196509077033206,0.05320998117838695
0.15633094708987919,0.19844702961077323,0.20207397781093486,0.04488144327847339,0.050016021513203446,0.2069774174139772,0.1745003338307776,0.017994153795555145,0.10968643473910947,0.09933748123933774,0.09065355533126326,0.009502447542148766
0.20117802781326372,0.25343544882913743,0.1503272171575359,-0.056963994600917965,0.07192378415704004,0.25968834065754404,0.17403990304898745,0.05324577547841921,0.07468120847229473,0.0929067620941182,0.1497135400172372,0.07139023961963481
0.25556857363190927,0.1376059375873159,0.20179322585374185,-0.05119701162201749,0.1259914819075014,0.2741230534156437,0.09825223376265256,0.004877068274768771,0.11940285742787783,0.13600028152852642,0.07826013564411186,0.029655308755243328
0.22490337684493314,0.21866794616394195,0.12216811409628472,-0.05201726473049833,0.07691291775149738,0.2891527151932802,0.1485022670383799,0.11207179433416416,0.08950580039042615,0.09695265119343642,0.1542590626276675,0.019204350788450217
0.23655052776605126,0.21454999831817206,0.24810513807960835,-0.03080762291320421,0.15739975526725453,0.27497884921012594,0.11020553654337649,0.06866394828133214,0.03845315241872879,0.09485899644314022,0.08644671883945254,0.13631607615767644
0.22620481722844787,0.14986259568437618,0.14637411486463872,-0.026417956774094923,0.18665417194355877,0.36219425574813174,0.21056623078282596,-0.009817282157272678,0.0754589509840945,0.11687343796953803,0.08408897899040359,0.06740443280697272
0.29312710056730634,0.25766585435466915,0.246043199315998,-0.07881818629804897,0.14506045968831097,0.24007819039112388,0.2439418538531415,0.08403430707945311,0.15735259934587384,0.1441574588238892,0.10691027603737752,-0.03160944670106857
0.2500597859628276,0.24130378143676573,0.17986651945798451,-0.011070788001941471,0.1667418652508207,0.3424633025728371,0.2171196501888238,0.10970700290661531,0.1147696300657368,0.2249314207826739,0.19452818492272997,0.017646912839145667
0.16528663876090083,0.22817519184798524,0.2286839772365793,-0.07347213985736496,0.212606454288701,0.27586867890240674,0.13349478146822902,0.10242101896022404,0.10799155276851619,0.20108279095746354,0.17467023949913807,0.044984673500081195
0.23668838619891583,0.22849788609162722,0.20407442720869282,-0.030841688913134258,0.18217954676419393,0.3385295180931908,0.20933775361187767,0.07652200827318276,0.1827712906432815,0.22021678868005207,0.08098090266232649,0.11568260748358135
0.19117415811764446,0.3930777416922093,0.24655032841431565,-0.024479117587579747,0.21770426475798052,0.26663207484985296,0.2658809758048495,0.10067736430767334,0.1598987864633137,0.22261595988132743,0.19844924316812654,0.10121236833057491
0.14598362228000009,0.2600734851440669,0.22367920768524585,-0.019692238474436703,0.2303463964795067,0.4048826267404838,0.2606605228792116,0.008818116136910805,0.1736201508394415,0.18304145703627495,0.13394507686480103,0.12373216963811505
0.27027749218072517,0.2143141265313794,0.2866211380560932,0.057105958206216494,0.15197265688319597,0.3796645896566712,0.2809292998188033,0.06734742281454716,0.16730060574616168,0.1590925242654578,0.081866197880057,0.07728597055905938
0.35890785148850574,0.25875669864286815,0.26803838206394515,0.06960765808675225,0.2741463455269879,0.2587107459162683,0.2923778116065472,0.03976840771013525,0.11406947084118207,0.24096031868586582,0.22938186060092014,0.12381015330901778
0.31511738899025304,0.2913745628680314,0.2765770325353336,0.05328409330691548,0.2480098507586758,0.3889998735545338,0.22288572085154115,0.08378534842198962,0.16582843719352805,0.18918410658356546,0.15088192911932782,0.2032716470529631
0.2745866891124044,0.3011722843555841,0.32850043788024524,0.08191442040902368,0.22123970928768186,0.34950546540599003,0.287175181174084,0.1804210444305245,0.12015574332826456,0.28807542439347766,0.13579139929945408,0.17893763427050752
0.2956842010587313,0.3238635471655386,0.2331504056953544,0.012843022862154857,0.2541769648371972,0.38818836117697314,0.3000126440644177,0.21381328485309337,0.22421436927255817,0.23346053290982693,0.2154709535366979,0.10475770422401189
0.3947167184379828,0.2962841639899124,0.33007544375340536,0.09235177705259386,0.24603362927745667,0.35840706017326296,0.2554838863915397,0.2357821597288729,0.16222265611065081,0.22845008096950073,0.2298799152130704,0.19978975612822894
0.3655627446346152,0.36970374107359066,0.2851915819499892,0.04174847369952872,0.2525740066664441,0.3615245473129451,0.2842287823795327,0.15848738813657076,0.2818177314173683,0.2889610299071708,0.13303826001616753,0.25765717938934996
0.3730199165566219,0.3397547418577934,0.22637069648476849,0.0640844790693913,0.21905742655561786,0.31795902236253343,0.3144810434666484,0.2137544211083521,0.162010103477962,0.2954419351918102,0.2299923029754943,0.3039400212283078
0.3809276858096948,0.3154964533978545,0.32190407931940296,0.0773355260123549,0.2491633956320203,0.3657873555547055,0.4118619242498064,0.19413629192391724,0.17732435240893135,0.3158747467212929,0.17189021764598122,0.14105481692343183
0.39701395198179174,0.3472221988927081,0.3014246238692813,0.022600763754177813,0.2605236861191463,0.3941213655305048,0.38658012685320525,0.23580400810702504,0.2647914161551181,0.28742025240508284,0.16789986328473086,0.22838209457572067
0.44154901073493813,0.3741295175596778,0.39412977494619594,0.06536578839166488,0.31873967421214117,0.33421507412252444,0.3560676453089875,0.23967077289874847,0.16759568005513856,0.333362133811063,0.2183773272861466,0.2700968082894238
0.4429585110484022,0.432311998676044,0.3077759544652171,0.09723878165755313,0.305450593850276,0.3731222639670536,0.36982982351504673,0.20932718373902628,0.23934670261667232,0.27723586231390357,0.23978506908392325,0.24776353059502212
0.44058388114635616,0.42684116998430827,0.340923472631517,0.13265289346520504,0.31035285893692643,0.42511415001629904,0.3135609730420751,0.30394791516638575,0.2619170183858397,0.363673939271317,0.22635397640945595,0.2663670688835995
0.39894780512479444,0.40261699641885756,0.3582779044592628,0.12630986014998707,0.29883420152211454,0.4536863996317237,0.39410079386729585,0.24848021993866987,0.3618509827252148,0.29875058539687244,0.2161160926661449,0.23402373083487907
0.47548171785562904,0.4242953203479053,0.2731845606914548,0.11060372603917572,0.35297768972737137,0.42569729361992015,0.44691305750307725,0.2549253471397326,0.28535151951974025,0.38235440742226556,0.2636072187115719,0.2987533424283151
0.43540820093330307,0.43875168007611764,0.388057393302668,0.11259617706381157,0.2283487744328773,0.5140096887352881,0.40095979571138307,0.28070423918037546,0.297060865069826,0.3979006163929542,0.3267597219738589,0.3476384571430816
0.5200792181879457,0.5166560939110575,0.33042414270712406,0.1759211123670035,0.28653250069226505,0.44301107752151947,0.4526830088784863,0.27649781366417336,0.28752009819977564,0.4385249625692335,0.2733702020966673,0.3327145653825693
0.42914967920571645,0.4166137201813318,0.4440789935598068,0.14140092957862369,0.35511011578924684,0.5006135936649421,0.5001863680568832,0.24275270003236443,0.2922474821753665,0.42710769243799274,0.34656986415534385,0.40935267088348115
0.4849392145456384,0.46339426123518385,0.4630504902328465,0.15655589408090362,0.3099616575319699,0.5392685238561863,0.44227570977040115,0.32096776500303514,0.27974647524305774,0.3818646467955174,0.28718153570787275,0.34307345033501324
0.4974530997679803,0.47653435745947037,0.39656615900820646,0.21604078709224478,0.34855845339733815,0.45967081658533643,0.40288992024215703,0.35381765083749184,0.33115832734408873,0.419918097104982,0.32654707690050794,0.40819984875297055
0.44788357525288963,0.4120168999994411,0.33382306867505906,0.24238998032295594,0.3822466347872038,0.5501815323756462,0.4739219451542169,0.3780565578775603,0.3078474159488678,0.47477919203567803,0.33547904433314063,0.3870383281130845
0.5813777421139746,0.45791297639020984,0.4174958221372847,0.21493604171649955,0.3545703194433071,0.5035568585712529,0.4826999799102706,0.34364397172819083,0.3178917084283555,0.48549902798510397,0.30170772081172986,0.3541782761654048
0.5742006596673523,0.4565751997224109,0.42257854194493194,0.18947564013577672,0.2738627518370583,0.4808555411844572,0.6116443917310108,0.4351091708535712,0.26828632425438875,0.4409192786986897,0.4116130512276223,0.4152196772131539
0.495763317369565,0.4301569928056424,0.45111230887473774,0.2889455174037643,0.3153342147617207,0.5913835001129382,0.5050275585131193,0.3488389139734787,0.36144471026187236,0.49063364788938,0.3744092881726788,0.4109543785452042
0.5494866668570947,0.4686802842675288,0.41023258917566513,0.32405735855192225,0.27999012457507055,0.5986285474167136,0.5130775849460749,0.35821000720405083,0.34427764457592014,0.5377788085328,0.37385383164707064,0.38466224520996345
0.533367420181133,0.48338347202751675,0.3739042526905717,0.28553832836004084,0.3329181605898836,0.5212760263997562,0.5677426941735626,0.2891695591602407,0.3358938247875638,0.45975379572688796,0.37649083721098,0.31146421721412737
0.40645036337207824,0.48288622862186237,0.4220684880615269,0.2985833731684723,0.3479179559249692,0.5837691574872774,0.5018786510868296,0.4642655618877743,0.35225372842290525,0.5154310600551155,0.39006792661012973,0.49835376812275994
0.525498982060263,0.4251692454972302,0.38872677294548225,0.22854120139964842,0.29777475518293367,0.5833668259434934,0.5248869262710392,0.44755583332287496,0.40006442775408885,0.5212403599863308,0.4177365544876121,0.4529993322264237
0.509470536710675,0.4338583780324837,0.5074205688698058,0.3726385185507413,0.3178174239588784,0.5427126427728484,0.5375878603198602,0.46028342864069055,0.252603885389413,0.5013957796962866,0.4441222246563345,0.422251580111032
0.5116436988247541,0.511996140554376,0.3974169259774613,0.29879696844661274,0.2859972725438248,0.6374726468175025,0.540326418024502,0.3410634704995821,0.3822344240333497,0.5227432944862141,0.4062139766016235,0.45481634474586424
0.4577700301233847,0.3675065294217771,0.39767913888009193,0.3824286163076312,0.3527004588502679,0.5396124403080085,0.5665958265484581,0.438025332449166,0.3316106100658266,0.5713010556215329,0.40971828479271327,0.3214102115247506
0.4859721854228227,0.41118807208405744,0.4209139505904201,0.33531170038007846,0.2820796025994103,0.515422631675449,0.5596425683899765,0.33973230611017524,0.3296518178866556,0.5323050483339722,0.3889235638365407,0.4185301724549086
0.4830760636828337,0.42830719813282375,0.3637944605377399,0.3601891645578692,0.2769971507228061,0.5421839045200928,0.4561751512138744,0.4577985524985486,0.36040052070871154,0.5226004770628088,0.3610880782386045,0.42441569247487565
0.5331965323116462,0.3892897944622954,0.39293474297569114,0.3635912255845669,0.2798182278056346,0.5328805382046395,0.599586016800055,0.39985138718626273,0.3658249597713539,0.5097637600445082,0.42232559187025576,0.4137550444114823
0.48895411960685653,0.39903158017654405,0.399778665725648,0.30097272671842745,0.2878355425099727,0.5144818868456151,0.5326332072279157,0.38506607236828705,0.2816161869447327,0.4982294303191094,0.34754255005997736,0.4137894358109451
0.46577461267458314,0.3693416483232071,0.3765500172804366,0.4933727112749899,0.26590003913611404,0.515318228422985,0.5779241872658346,0.4000985133508813,0.37113358149080283,0.4617014178578124,0.4381500989759737,0.3154227909395695
0.5211123977156735,0.38145819281304894,0.37851304378197487,0.3164360791682604,0.23125347422176704,0.4639237395959588,0.5489358589262829,0.3826556431283163,0.2925989192843117,0.46425667788750863,0.40094082793256475,0.3886783174883788
0.42330536708356015,0.3913733091280679,0.43498099560927284,0.38746225311444527,0.2248015347702664,0.5387049267460582,0.5658389225411099,0.4529171177415014,0.3642472653786863,0.4424916573890134,0.3522116526423482,0.37959681263177686
0.4200759512865753,0.3209149113736929,0.38976548443800396,0.3496962316503093,0.23136888606274394,0.4466801847769215,0.590050492704106,0.4279562819940834,0.29653833078530156,0.486131159043872,0.39517464653135637,0.42062895117570964
0.34937550765781217,0.32646405880914897,0.30172499723679413,0.37340549212697416,0.22506240936550326,0.5415040630899848,0.5205079136916401,0.31068997017160543,0.4037981561112125,0.4524795133189701,0.32773860702759233,0.34273749179304686
0.48159131361943947,0.3055853765707289,0.33107908002543246,0.4394671100684229,0.18239223481549724,0.5140887121629207,0.5026031265072326,0.4019913793555821,0.23748097923310335,0.4190942367414132,0.34627416146435996,0.35937176274524535
0.4453618149719983,0.28110610667074926,0.37191278532237737,0.3030843512309514,0.1666463817368603,0.4571062532517834,0.5289505043651719,0.2532242403169723,0.28114793384152503,0.5229493171443612,0.2925751843998604,0.3560319996662763
0.43264989608754784,0.28580710787762087,0.29946901867792025,0.37230395859770177,0.17023443174417816,0.4457878305039486,0.49997898808149976,0.4252854189505836,0.3187350673365514,0.46309926721317207,0.42374078450209235,0.3686796023393629
0.41155552021272424,0.23169719791942864,0.3204933849767543,0.3958014211867109,0.18663904609494225,0.42237005882569983,0.5689192531869787,0.3162133299401136,0.224925644385028,0.5027854479233167,0.3433489368912463,0.32669366615821394
0.37748672016145735,0.2959993377838564,0.3044297240362101,0.3769413184400021,0.14723734110001274,0.4379223219515933,0.4754558073625933,0.3165704725381427,0.25454636176775647,0.5116334580252357,0.2979669998436687,0.324096143988911
0.3716313557582477,0.324408145270216,0.3177547724271581,0.3846302129761535,0.11790526979925406,0.49930717339898173,0.45003818324933115,0.3162566339001953,0.14428871152543396,0.5110411159270937,0.35647081039826073,0.31502446591710886
0.3418494762233191,0.3154702015216561,0.2755925190302136,0.33283233534965134,0.1372144448832095,0.4259627230884785,0.546398725723241,0.4052248646979523,0.15221426977292474,0.4415814572917585,0.29447431778966643,0.3103094732283777
0.3341170905440734,0.2899610968281797,0.2663620089755387,0.291500582187229,0.1254368540131484,0.38094557551024844,0.42434884303232506,0.32919379811786587,0.15244838468681285,0.34233827746905043,0.2888745699209026,0.3172634329516155
0.3355392685647767,0.19335085651138653,0.2241565280835104,0.3006743487412171,0.15791938712353762,0.46034905093661455,0.47438804832608805,0.2873395018961865,0.18129235810686323,0.4477346234510855,0.3135921980355519,0.23284665315454686
0.38791610173316976,0.2838636041473036,0.2673305083929565,0.33362307384991924,0.11340409446441907,0.3561497178015624,0.40572512851413267,0.30378580300894675,0.1254331409330497,0.4198077779210278,0.3404911042899907,0.2733420030305748
0.33881445965209167,0.18840309555207962,0.20071316543247414,0.3769305956390725,0.11218939914636805,0.34538245726269357,0.44718623898516957,0.25343117575546725,0.18403967258309856,0.35546308175419983,0.3279382813114542,0.2722543724152847
0.304510106589006,0.20790661553934334,0.30802345358853267,0.3449126680444523,0.18740800409873942,0.43886028320827214,0.47481016679450355,0.30064303164794925,0.14774128684844687,0.30914508089043274,0.28774572705244805,0.28405810358791783
0.2745089671438764,0.27674998286737074,0.22176033939722434,0.4038466679885483,0.1335495183444091,0.36428770316877407,0.45565682900556775,0.2253427143696287,0.0432663788889713,0.4445708954640143,0.24483061902114955,0.2685779111546743
0.2645070388557018,0.155708533108756,0.20407886137718878,0.33710316540745033,0.08202411007676336,0.37503586248491555,0.37095086579884406,0.2247655800476873,0.1630132655363345,0.43849919305248997,0.24317441540052767,0.19207367500703754
0.35162378465359506,0.22598357854010942,0.24032401730937136,0.33693196261406866,0.15301263296132858,0.33940898249290746,0.4008144881708588,0.21916614192384057,0.1748504005732429,0.441425051431911,0.23060875464180808,0.28585879233674705
0.29843286158976756,0.1989350533793567,0.19427518825111742,0.33343014718067,0.09546242920087637,0.3251801457697519,0.41744969158422296,0.27379842922580716,0.15104149754979912,0.4420119485474216,0.25092782784843404,0.22610851077752986
0.27328423314855305,0.1773138712432987,0.19476497998146045,0.24962419593659427,0.07736025759602556,0.3212802341009617,0.3633498464227946,0.2234621514671688,0.14383270859230132,0.42737638728669214,0.2171745528165206,0.21232492998021044
0.24950772915421557,0.1445138121870073,0.18202834913922916,0.34240292428873115,0.12583092555969683,0.31519124575226254,0.426582829711207,0.19912129705740805,0.09029687482734426,0.395254389674968,0.18774466459080832,0.26169385632953257
0.21130702036052806,0.19173134081222795,0.1465220083581841,0.2694528049711494,0.05137696269348515,0.36750912009256315,0.40554672330253916,0.13870098315787352,0.08583176986712854,0.38567216127336196,0.24218686744979073,0.27940048496315056
0.249536364238929,0.15253529247041228,0.13263779386441604,0.29739127749811894,0.09544888266288422,0.21607749853239633,0.40354241814381675,0.23659040163661732,0.09646307573057014,0.4064587588658719,0.1855321497414326,0.2538155246881705
0.2835524775907271,0.20769887077355156,0.13779701365497923,0.4085494040625678,0.11392327663681451,0.15712439599164296,0.3255340676256022,0.17496113476061945,0.09451677598010837,0.3845872731777105,0.15033523552669992,0.2587463073313229
0.22434051782557718,0.2098352923232905,0.21413858619682316,0.25802751935883467,0.11624595856134866,0.23901741922135566,0.33384533660087057,0.197581760070793,0.11250562964492226,0.3659196863675239,0.24731360067804825,0.2501132492966983
0.22520236812983305,0.10135667917333817,0.13313438432396213,0.31305825954258976,0.06682924845089186,0.18164917051511167,0.25964939884899696,0.16953434100251993,0.14888686635384674,0.3823486278574605,0.23288867356668422,0.25303602902148914
0.2188286636057834,0.12941977780936464,0.13942323983242375,0.31936506674831144,0.061764334276074896,0.24536291964286358,0.2666388084229941,0.18891189494954733,0.11793914913187172,0.3347773470902896,0.12586091483993925,0.22218731356966065
0.22541868220501313,0.12924888494204304,0.13419022628869734,0.3121393595451348,0.06903245069806058,0.183017164272144,0.3218416061480259,0.18074366087354843,0.05844551707106415,0.3199855523828801,0.17465715413812583,0.1665269738346734
0.1452980697935971,0.08639029743519476,0.18122867935494918,0.30722367953218044,0.10570203474660765,0.23081950569759963,0.26213994884741254,0.09563714474106617,-0.028631100401278378,0.42779084111905785,0.14427273462744034,0.20728305976357936
0.19316657449973185,0.07869704645669978,0.23410258777681503,0.2846978078106753,-0.009175452643435448,0.27268579130154164,0.28949296731703955,0.08676240466736355,-0.0019088211985011892,0.4354040956313432,0.21896407711322452,0.16474888990410322
0.15631041573685828,0.11452542551571092,0.10270335807528012,0.3918457281834661,0.0703649470012331,0.20146747372413132,0.23938408663585586,0.1437935288339376,0.06794207756971872,0.3932957770377268,0.1612878295938376,0.19738244971536184
0.21741090391449358,0.08913641555035237,0.16316890855612962,0.22672263944065035,0.03879563621405733,0.18929351781647966,0.25130124579417884,0.07647817721789947,0.010668466535674355,0.30932475811438853,0.1864445173249129,0.1698185166361363
0.13357325940235437,0.01636380945386801,0.13949553765285969,0.26839866096393233,0.06119903680627429,0.25175324118460907,0.22624931784549085,0.1688651629328382,0.12313532957599065,0.32122452189615625,0.11319451345902336,0.1351447165361296
0.17449439993757934,0.04307923898676684,0.11536814814335271,0.37327979575912656,-0.04070103492526328,0.18358018654027936,0.28587131908337976,0.1345443283877751,0.03233423034930921,0.371005288281693,0.17661669189413634,0.05728963317184138
0.19636522246219373,0.0670708710505032,0.14436298324266636,0.33434065333072127,0.024352197688334503,0.20895985225998365,0.2378471862208529,0.17174041824047978,0.03403044030621634,0.3460572245716347,0.26211648330888043,0.19312769849183814
0.09846031766670288,-0.018236663369960167,0.058803521239654724,0.27888548577252553,-0.05822332644214977,0.2025346282247251,0.2686555718838696,0.14575595040380662,0.05465693892224448,0.3140339385365241,0.21597244621873485,-0.050870136884608334
0.06466110799413691,-0.022443233395030338,0.14233646870668326,0.27164821300434544,-0.026419599016452917,0.14946456410794495,0.2809042973075171,0.13205611831905306,0.01112105929417098,0.38209463100657176,0.20309910748704263,0.02722576182903236
0.0763460418501167,0.06435019612617614,0.10523102204943721,0.2959339155213285,-0.055052775130122744,0.23847879321133572,0.23341112833101868,0.06686942416798368,0.021407625359103455,0.30611727293746305,0.20992812978491385,0.08210650663753447
0.04748573829188695,0.04538433178993137,0.039922126921033155,0.4122487199889462,-0.12591682244720354,0.1455872051005748,0.23991697990234825,0.09429697255488187,0.07067908738448918,0.2930281290581598,0.13729307833331897,0.027792872546244914
-0.012742166632735127,-0.07360237074794435,0.14006545782921861,0.31803561760069315,-0.03448462490196479,0.22237779798819735,0.3245786950042894,0.1071401035974836,0.05771241125328156,0.28063632162266217,0.1643076432827841,0.02744111888468573
0.03380465662044129,-0.05917152643942657,0.09184265336577557,0.24844926173118323,-0.0030489865580402603,0.19121069900721974,0.23957802324144128,0.09740761181626836,0.07251410985216884,0.23975996635168398,0.14769278181561712,0.02583764988378454
0.08943509726509921,0.020825762830107522,0.08670385852204389,0.29378349321360564,0.03810766408413989,0.11961725393084433,0.26976464004456074,0.050473059554818483,0.049351655266943656,0.2855147901179686,0.11354728826409799,0.049044915402280856
-0.010267557445083546,-0.02016097380479188,-0.048816254794718475,0.24913274049534007,0.021013991644100432,0.1387686530858059,0.25140658541688904,0.017592058098291542,0.029760160527284463,0.1608661655476547,0.1201156878008847,-0.03103074415515932
-0.004170453118891702,0.04856912917003615,-0.016891762564818346,0.32751931716301025,0.04858718392914715,0.17758020334292685,0.20952200819764297,-0.024471729365086715,-0.09981964905747329,0.20996433489488991,0.17131413927666492,0.018706110388563842
-0.02700425791212444,0.08440353780506192,-0.04511373889117891,0.2662775274914405,0.17277552736544471,0.1152833306782564,0.17847909422067557,-0.028150254764229728,-0.05281377051487477,0.2189307954782256,0.1396731301973169,0.12537520201885177
0.053584395379906884,0.18140373438927831,-0.007090370234096036,0.2941457174353775,0.20796138584779827,0.206205537598064,0.07112041414039598,-0.052761489901812876,-0.09054002762239244,0.23946741483437892,0.08024931400621244,0.20532897645733839
0.022340556738875333,0.13004591030443527,0.018985199894745154,0.23505118659488589,0.3414238429090087,0.054809182752606884,0.14167092969479325,-0.0002143937325487844,-0.07748462569390153,0.19227673734985695,0.10843768255148117,0.2206418354262097
0.0763521142235247,0.22657593622462915,-0.1219605207822543,0.2978614959730815,0.4493498650761194,0.1307642771203704,0.061569163993145375,-0.006582366269030738,-0.06829669012375389,0.11695227486420502,0.14215508506656868,0.3617240409324232
0.23972180787714614,0.36044014492052295,-0.026073332582288687,0.21298889504785629,0.49400673100556436,-0.009465869230512222,0.029365428747979965,-0.06593244571538351,-0.0633067332654213,0.2002468518567004,0.015704403271691172,0.3046704981914612
0.22472127874211276,0.5539761137718882,-0.01083860518222696,0.19153953079960928,0.6035805324147303,0.031284441990966486,0.06528206580188978,-0.0766774960848758,-0.061530179043635606,0.2114936561149419,0.019141458358797218,0.4898923634046969
0.3992390203132833,0.6200730724175795,0.071227717444886,0.1255927025373926,0.6935069702382667,0.06993905165593452,0.1009795429545177,-0.0031729548813532477,-0.03398505768056521,0.20633638894008335,-0.005341602327812967,0.6212624112422686
0.5204844391506496,0.675038727999675,0.06988203037651025,0.14517786364544488,0.7552995628823809,-0.06185869999544084,0.06783147596506049,0.04480456507274437,-0.0331327989813301,0.21159189916173343,0.07961026728069405,0.7799058120086548
0.5792815265757216,0.8787564469299701,0.07201813841912541,0.1823166580630336,0.9273698253359408,0.03162563048334892,0.07029504876601582,0.05745050700265479,0.013267923764377423,0.22724560803329247,-0.013295348547217919,0.7848953100181176
0.7106154291075454,1.0000414816175698,0.18737941125493873,0.1591947655580171,1.0444093066045443,-0.015264455948173525,0.07840837318242687,0.030202954417067735,-0.05274573619929482,0.31603442731748316,0.002192429555319532,0.9577320854946909
0.8918448432243293,1.0662929882045122,0.2302997045512544,0.3086200682174895,1.1326539761315362,-0.0009439802061245463,0.09458629707841232,0.0777594877695539,0.0032517793503182516,0.4015675357240372,-0.02917647181939832,1.03013553625948
0.9225807668923705,1.1524616046724274,0.3328130998667323,0.24252316271393268,1.1515619600202038,0.06131444630824416,0.045715777098252516,0.2884083321335968,0.10468865866088561,0.5781797418281498,0.03281642410414428,1.1530328210417193
1.0217618608915533,1.2517747818483316,0.4706270945873502,0.2620295010071034,1.2480492215870291,0.11998525001290697,0.08402988678082451,0.3475211716691252,0.19078963560544682,0.5740301479035274,0.08917579355050517,1.2696669872539428
1.0947701171655229,1.3239548945851187,0.5593204098912653,0.3983939870934983,1.166464745842834,0.18704544425033082,0.18634886652236027,0.3891692131371697,0.18734287028454683,0.6554427615435371,0.08579428658969097,1.259717565232069
1.2419647619902692,1.292946859257477,0.7129216185066469,0.4115101096737807,1.1570714072623247,0.2609133487848413,0.29193938774042116,0.5177713313929614,0.26310212610996103,0.6866447386475161,0.13561399617822192,1.4087064293403617
1.3676696009009452,1.2898161085696251,0.7614715435234248,0.538428301464371,1.0878151149813797,0.34084144421891494,0.32443277055238734,0.6359914385131737,0.470857422357877,0.8212862569483216,0.2010625555942526,1.4323283008720205
1.38044968814386,1.2224790330408521,1.0587468607017296,0.6161967510425522,1.019906148746719,0.3689992627335083,0.3840980980123996,0.771028676494676,0.5339914365299965,0.9626054701140346,0.36293269936887906,1.4773027342485432
1.3014834866873044,1.1417856579967312,1.134960098145287,0.6976930369620098,0.9376703494698575,0.6501856588866856,0.4927144394637217,0.8574582050677632,0.6816977864284844,1.0959740745890598,0.4580480881347183,1.3039775597262062
0.39382213392857873,0.33463561645078893,0.43957487378626875,0.3913055881855553,0.2916075662877673,0.4079922390581859,0.27111928937900615,0.40762074929280595,0.33337149501630897,0.39583918893339065,0.3819896050442342,0.5054542320254624
0.3974039598861023,0.36042391909224814,0.3697872041758467,0.3614065574685205,0.27930731088127797,0.3628214488546647,0.28714082490315107,0.36426485304144673,0.34021839296175266,0.4618714994917346,0.22210527167654054,0.39422468402152766
0.41493673511509965,0.31545354638923095,0.34562866647534074,0.42720414742324636,0.28120125390246015,0.3571403102544879,0.2932738751933487,0.3639056336917372,0.31427128337524296,0.4953081141434317,0.3301686106563458,0.4050206239653792
0.3737844690047298,0.29309847048372145,0.41088790882053694,0.3919309143122952,0.2524100267290956,0.35271143672935934,0.43084902883829135,0.4737700454930661,0.39590899929403006,0.49508159329520196,0.26328311480873645,0.35839879643254113
0.3680478589428132,0.31416923131536034,0.44138896710799497,0.3697436010648009,0.18989140328112125,0.43120591601345143,0.3951096657294561,0.43784535756570964,0.3638198973729173,0.42385761047348797,0.32986746941050893,0.3317139835072186
0.3456368757765316,0.27169507984838853,0.5464174271326296,0.3981930137700195,0.22330360698263815,0.4538878308893588,0.33960360364950287,0.4885965811592609,0.4186722223313462,0.4328486339993724,0.3445902043877225,0.25661990923013317
0.29309951484787383,0.26306691984658276,0.49716572941441634,0.44560663760095776,0.15849383904998982,0.42241839034706696,0.4341923722541127,0.44950563188533904,0.3381370180482995,0.4124573470802754,0.3749537051173232,0.29189656121774654
0.27602983710659323,0.14506589507766718,0.4027707805751689,0.4723820084290842,0.18705653392904162,0.46769142299821787,0.4617916091470503,0.46872050774609897,0.4098182886382973,0.37600694760484143,0.33865720953980444,0.2800452745008099
0.25890598955150207,0.21075556117234803,0.4598295092763371,0.4901439058656209,0.16040500636466914,0.5160859467383423,0.48318280608094594,0.48597597550645777,0.385669343659637,0.3670174258030723,0.4900748441832082,0.28010653428422216
0.2206239253574693,0.1495066248034546,0.4376680165710047,0.5115950404112934,0.08019875176913241,0.5000055130089652,0.40721886158621934,0.4104849888151848,0.3647608835985339,0.4156250868707597,0.44885821643783214,0.13247897837970674
0.2219923245798716,0.12779063335308613,0.359241416202784,0.4354341197208483,0.10301739606063981,0.4823340343543605,0.36860753493152904,0.42140936652461963,0.3887486297054772,0.34451484068413496,0.42966445550307575,0.1449836031648875
0.25923917789991474,0.11575270468702449,0.38501379589492524,0.48802696129935874,0.1668013512822322,0.48097589717064576,0.5338469968442898,0.32821757380204086,0.3601480901044847,0.3776192904134365,0.42059908899809484,0.18226582331937632
0.18781256326975854,0.18970554957172198,0.3188890900391134,0.4140740232070633,0.10794734024968337,0.42999335531188154,0.36866570933691584,0.3439970973126952,0.33165411379965515,0.31615949884687755,0.39990252805120463,0.17936719778557886
0.15073818015876989,0.16958030429481882,0.24899969468474858,0.417944318571765,0.10642727718616588,0.4391124251873927,0.34437206695599465,0.19809263875886554,0.3187016607893118,0.28187853091509496,0.4681050425306169,0.16456098132691352
0.06578686834070097,0.10601419327175718,0.2008056229060047,0.5309191509183984,0.11503928327158706,0.4210806510057884,0.3880525475718498,0.26814839740674584,0.25054022051735997,0.2792758107484287,0.4044436890483784,0.09802569526631778
0.14476059064550006,0.08908147834328255,0.22344240330302226,0.4523676182902086,0.1366751361712297,0.3598485005684083,0.401074226037082,0.21324106574090693,0.2715332667770736,0.25765309375738565,0.35062529060110065,0.2713502824110731
0.04051358625157873,0.1362041983564345,0.2514974835095924,0.35800068501777765,0.15666654582087225,0.35865280491752866,0.36892733607517514,0.1539932943022544,0.19776394242384981,0.3467806037371409,0.40077346981766016,0.19577108311613212
0.06005489419674431,0.12075450711165686,0.13003041853261688,0.42132523186567633,0.1310501666004448,0.37468679639942465,0.2646050150686689,0.23256940412741695,0.17495991016565537,0.18628094419591273,0.3685733954216404,0.16426454488019454
0.15477778605236628,0.2089710916355234,0.10342880882447077,0.3803847098050727,0.20564706397823415,0.35298299736616784,0.2729388070334177,0.18875124348235992,0.20254110455829474,0.20942805114596103,0.34677682732181286,0.11601506166401346
0.1497876654198148,0.0909531531023834,0.18581011418061058,0.33430568962979035,0.132171767713216,0.18920368192526577,0.21485138143507754,0.19238184068325426,0.19515274997647472,0.12907592626066589,0.2633796780152411,0.07382112078124263
-0.24717728636868916,-0.10210248155773638,-0.22491269718972084,0.5935528383515113,0.023469754357710065,0.3388435132863339,0.260878199876129,-0.09909708901088457,0.08249734766778,0.03520968651656077,0.47309151139439287,-0.1379438791919946
-0.2925014950507992,-0.012751083258913548,-0.056626495467385456,0.42196868618875794,0.058297986615492285,0.3358148283642035,0.12356284512358112,-0.07118931162475348,0.02413804173639126,0.06801794139873914,0.35730961523212385,-0.12403228475272193
-0.21144220447436984,0.024027536579628833,-0.17355179909194984,0.3397752087650098,0.0938591651086407,0.2188365933923405,0.16234685805423377,-0.019542359257443832,-0.016939052953615308,0.005044419076147614,0.34221753501987046,-0.09111093390460301
-0.1983209688870922,0.053532842141390605,-0.128968094679051,0.23589955292227524,0.1602232186533894,0.14261580016895226,0.026854663517655166,-0.09524101889351304,-0.01751996831488869,0.03904468516761642,0.2539723515861882,0.0017635103111954067
-0.11682528014151249,0.10068349770252676,-0.07732147348848202,0.23706842963842248,0.20986246843332626,0.003393797466793258,-0.0963925626384003,-0.1768324508865511,-0.036050071642189915,-0.11068460378683431,0.20210117921561174,-0.006713060233675279
-0.023384859843479888,0.17302425914426123,-0.21285987740856216,0.11633873558434715,0.1318416999100171,0.020977010295798227,-0.14289801583593856,-0.0859415746978807,0.04827312001184726,-0.07574923912430626,0.09862326033116901,0.04423556671157176
-0.08608309117332638,0.0951143783729597,-0.18004899157473342,0.11718419774716382,0.15117369564055924,0.01266788392322676,-0.11217463301609833,-0.09211981380358486,-0.05288837205104537,-0.026476525229521375,0.05849678953895239,0.05025840434833405
-0.10690682832231016,0.10193678924437018,-0.016251779207164644,0.13980646686397658,0.19007383516580934,-0.010718184032101702,-0.22019855687137582,-0.10582757970448853,0.0017950496616022094,-0.059144663976216115,0.04827004201583353,0.07504987569082962
-0.10479507598855879,0.06607508445860978,-0.10469769707947903,0.0938042723821797,0.17229908924419748,-0.06413179187977061,-0.21168437232917656,-0.08753929586660539,0.07103696344252541,-0.02423205367262809,-0.05085499436730861,0.112762342484502
-0.04198146326872618,0.1548840589645184,-0.07390305892916416,0.1330143924761716,0.21348140545080588,-0.05117714357548256,-0.22065513342435464,-0.017886368408357847,0.06706086119809346,-0.028853585989057694,0.045418311009765094,0.10841125760583833
-0.03418476235950857,0.18656444149528162,-0.03391732700033561,0.20686730014434923,0.15181372880073063,0.00138241768199162,-0.19313495999554914,-0.08621095254526052,0.08646617504345827,0.07643117051675262,0.00465087445110372,0.11140562339081436
-0.06524427496283372,0.1485259205597975,0.026402941195140077,0.10888258773293825,0.22384861472641157,0.016613311163619894,-0.11001157239679264,0.07508488292407069,0.16955493184164916,0.056314804366406276,0.047530502224841564,0.08406826795091106
-0.004270088347251682,0.2104657214889271,0.06082590851938834,0.23146693003701965,0.12194833933251745,0.08883063226003837,-0.1922212642130529,0.08925803936935796,0.1884293712997736,0.08964212418942985,0.030739835504989863,0.10758188798592866
-0.052447114525226,0.16959197905907575,0.028150704874132623,0.17061871730941494,0.22071278846848233,-0.036698858580981035,-0.19802478790187095,0.10664982464636269,0.21715759201100598,0.0597249231721012,0.09052384938706527,0.0748720622718419
0.04668907752724677,0.2323992707839926,0.026629330615008957,0.187189800342753,0.2293114276206009,0.062217373257474576,-0.17214654135456187,0.13893417373079478,0.18124044441894074,0.11113395376015221,0.16626252144202378,0.14278196696835782
0.04733420840474746,0.1895546103766121,0.05462834987108671,0.26223643582469475,0.29632919733769986,0.16741477717019115,-0.12932620469090828,0.1813172776021421,0.24867248270560752,0.20873724730120682,0.151575962492777,0.09634251210286608
0.05059322529043091,0.13828098826198093,0.08101290702054173,0.3212273663669077,0.18045389751725568,0.0908770319547377,-0.14060906264544284,0.08707318996119054,0.26707251673568516,0.18209584891989475,0.10563933040556889,0.14765690805204823
-0.013259144424405702,0.15846285486215894,0.13370671944907597,0.2723560405001394,0.2398610907582403,0.16751423486485456,-0.11477782850178829,0.1696624498280127,0.23624459604156808,0.16174609353928035,0.1690888272097149,0.17205228734191969
0.030096714031623846,0.12660407453558362,0.08865589935734022,0.29271477838821386,0.24138307894583533,0.24454335726611845,-0.08027258888611229,0.1987278474549251,0.3080911177458673,0.13378746670127625,0.21849014865927252,0.1779365714215766
0.004320878489294949,0.1222338084008156,0.1671254821091992,0.3228281654889927,0.18872385571363248,0.15711789002757748,-0.008628270333294769,0.21507749821238467,0.2967359897853471,0.16175748836910617,0.24825111026603974,0.19878342845307911
-0.005034343930892176,0.20522373769197794,0.052915524436003544,0.32628426178761616,0.2340919121019284,0.22864211560362593,-0.006919931022059743,0.17679137524472868,0.27768501996294526,0.17906966994402196,0.23843970141319434,0.1713878330001164
-0.001389728295617645,0.2330462291831706,0.11591806931206257,0.3764125576965769,0.1987784952334224,0.3078607918727982,-0.02386916594435433,0.198741207289801,0.31142912220474045,0.2552938973952503,0.24157478036597968,0.21569264501847932
-0.0402112823839337,0.2801498550033003,0.17080491324176741,0.348938125741111,0.1910600325510613,0.18049056682631276,0.013128905924143043,0.23817283508386933,0.3234204378959639,0.1871677851060528,0.3002054310732611,0.14028655593884548
-0.04435813371920064,0.2052654334856843,0.15092949567868633,0.37607431467465585,0.1825680797492903,0.1575881302141619,0.003590085673341059,0.2400301959380022,0.3216961642167437,0.17008830315800674,0.2796092634113646,0.12649469378101966
0.05229483403176568,0.20287273339333373,0.1093273208495358,0.4078624037962588,0.23161861702479414,0.29369329360243324,-9.538082950532109e-05,0.29503206863575093,0.3187773947648711,0.17230414558160562,0.28350650154263324,0.16516829029440028
0.013261646765035407,0.17347282380524112,0.05614582735093499,0.38094206466667074,0.20614684273409128,0.23253162556547657,-0.03111563723222855,0.15096155320177815,0.2603190557668705,0.13679792080088163,0.31697030760423783,0.21561637375328688
0.033367108507069254,0.2616237611097692,0.063669249952155,0.45037271389809785,0.17411358608937264,0.2549356893894698,0.040665353264576355,0.23141583490154022,0.3229375761238442,0.18929226884878564,0.302693844817236,0.2246484144843039
0.06977631783983589,0.24355301817963476,0.088152192000149,0.37752144988719144,0.2611526636436309,0.2631097453389347,0.005822707981805935,0.2229514165355854,0.3328865968937956,0.1386680720065599,0.28211297010356484,0.26720727123787125
-0.041963288784127084,0.21049081374632475,0.10891488929220974,0.37623201465213074,0.19496741164701215,0.3152864624394004,-0.0018596027071530524,0.25004874906250757,0.26574169691791416,0.15094599587648133,0.26320282296184766,0.2674688143765032
0.00208168457437301,0.267323784722128,0.08487634120910845,0.4952999771275238,0.28394379139186193,0.2518315611517317,-0.008751197447913476,0.24552378532475852,0.3643779678832837,0.16359691889431263,0.3422427684035038,0.17266584131252316
0.04690379594000762,0.2687081692449374,0.03270800351701188,0.4751733318279083,0.27251913485785245,0.3082591125417554,0.012568216413818202,0.22048490784220603,0.3399599096336845,0.26804751901855206,0.27885960801135923,0.24493788560671728
0.060757554643745014,0.1793582308584819,0.06511189727843943,0.4174334687365103,0.2394783805064468,0.2998515260459067,0.0024242333167141233,0.2631876790586724,0.37175174731724914,0.2518503864752487,0.34850972297180255,0.27278850354874323
0.03340215862523628,0.2896106356757998,0.12125063922657768,0.4509312893965923,0.21740847820918158,0.26804217346929665,-0.0452965306631054,0.20322305681983407,0.3614718365665801,0.17567609861948805,0.28060702178922486,0.2300725211162389
0.09823235184762238,0.2729844330983398,0.13640145305253568,0.43264112263824556,0.24604494889490394,0.3149328855060562,-0.018212691869950687,0.21847008375321603,0.34147411146514567,0.21876584982015984,0.3326369945006479,0.2412324729855937
0.0695960258808023,0.25980025509704896,0.03992513118933909,0.39957017110500787,0.23549707036421527,0.2844062680819199,-0.042106512862514794,0.2247124220779611,0.28503927465243684,0.1953125612621358,0.31427303972851894,0.2795039571820726
0.015853945429107244,0.26677286978864856,0.08701665416631853,0.45146440632485557,0.2748128016150237,0.26925683112303306,-0.11374451999772636,0.2826717409130004,0.342970830288971,0.215358323989791,0.27838800771442584,0.3231932032378896
0.03453177874843292,0.3606394474694083,0.03159013293996006,0.43890639395670134,0.280504183183306,0.4049083440928294,-0.04344594277289876,0.3122672713096024,0.31170283844412777,0.19032495377904488,0.24748395951713814,0.3577188935213767
0.11496670248792097,0.3608708352820262,0.08249336825803687,0.4827498801669152,0.3861309660959145,0.19239409887608727,0.12180889180815051,0.3367025454759946,0.331488187313176,0.2267196420276895,0.3400496721568526,0.3358176727919339
0.1081601344687747,0.3812679141539516,0.26502829257574484,0.3563276932207925,0.2304941641789556,0.23154385493589325,-0.05852277971341845,0.2362905184544589,0.3407328245869286,0.2681303451256265,0.29485156125989365,0.23820022454907258
0.016500114820286592,0.2729865636746247,0.11537113589786567,0.47027899828824815,0.2892245871800689,0.24075184963545865,0.014637265239356169,0.28747169312024157,0.34555284456550517,0.20212128803951498,0.3477051164607926,0.3710472201321823
0.1619440173011488,0.30206142948239584,0.1005894699444221,0.44763544300197455,0.33566277235252556,0.2704143580546932,0.054590276918364385,0.35255290960693647,0.38326224564170197,0.2598269629080432,0.3611759074889529,0.4614816857662041
0.139187992406179,0.3735395067868874,0.09338217550965791,0.41625266522437215,0.35829513585371336,0.3003972096190243,0.019370526501883083,0.31272311453687246,0.3890372909228832,0.21362907078975216,0.37773838359515816,0.3072277170074076
0.17991869528492868,0.3001382396846665,0.06992947233512356,0.43132788638966646,0.375492426296985,0.2883612377033852,0.026507987596965592,0.3767130482425817,0.3739276737403956,0.25277424325902886,0.3176476415919267,0.3286122607572253
0.11673802989753213,0.3298227555020771,0.04560801552561154,0.4369172943072948,0.29952578286915976,0.40066092402491826,-0.007063552736702793,0.3884268122112559,0.33244898051706034,0.18130266324184904,0.34628525333316806,0.33435225294310655
0.13052830952507033,0.29763945341868353,0.1296706927113445,0.403614350740774,0.3691119252708446,0.28709282040570433,0.01073890097244552,0.31280624562560466,0.3521706764005856,0.2538194657796091,0.2876048809696881,0.3467158241481329
0.10593509094252548,0.45303518105496454,0.12418646777644685,0.43987011008765603,0.24504136273029695,0.26891598671499006,0.016951897428017098,0.3224204341422963,0.3919348841277478,0.20330069914586577,0.35745427290326465,0.39878560589838
0.2713237472770218,0.4329205998990903,0.20617888526834752,0.5016623229226908,0.34574293212214463,0.3226078600850599,0.003945458489918314,0.3533706699223784,0.442471880805653,0.2136584068534936,0.35647462528887613,0.36949112073030793
0.16806036139187938,0.42037177185194835,0.07515557672459355,0.41169990948922797,0.39070414957613586,0.3099553430678487,0.05382515669742886,0.32738994396095716,0.3549512891575205,0.2537806400879212,0.36284630536151563,0.3411704875000021
0.25395640767980293,0.42242811354542087,0.17177263784870642,0.465094381898315,0.39243810612365854,0.3145798717560769,0.09405420023407275,0.36492230935438363,0.35618649857604084,0.34797934934362634,0.3101425105938143,0.38627684312439425
0.1714966980580441,0.40896913409356883,0.217622186290147,0.38860575519975643,0.32411223713623166,0.38244390828540337,0.11340451106680584,0.3632049418942392,0.3592600693460249,0.278971565497221,0.3723136601525663,0.4054131790766854
0.2178505251243859,0.42159753319137294,0.07950875496101481,0.4694979961693579,0.35165368345719045,0.36398066435360144,0.15568374680621966,0.45963266533057107,0.3811068964399702,0.32092108393100166,0.2935137249650265,0.4299234036704403
0.1528303628884189,0.47366335089658385,0.20095949837600938,0.5164540687741632,0.31152581850209937,0.4068702852191761,0.11704210897760123,0.39313042046740626,0.4135719122274217,0.305961145965991,0.37506688814410327,0.5319344972663063
0.21986551280949604,0.4333427751615244,0.10867606047300751,0.5051210956251192,0.3686956827439849,0.32114801420444883,0.23942411122078866,0.3767942393860509,0.3650859918378322,0.2796379659914244,0.3728215477519066,0.5216048088391256
0.2904706178099456,0.5221599404215503,0.209644204051935,0.5163187352330489,0.3531854267963709,0.40179505824717165,0.11828177991435178,0.41162969058468424,0.374009100048364,0.2520605459506299,0.4030920983205195,0.4732770416276568
0.20933490057596407,0.46643010659990747,0.2592380823659972,0.47552606696704275,0.4188624485643087,0.3853512685759704,0.07406100025624204,0.43084234839661784,0.37765694601698074,0.2695027517776776,0.3293868108768221,0.5110339729276727
0.32076524801866824,0.463598767690527,0.20254043846222364,0.5535010744570155,0.38908761883062204,0.36747439862756404,0.06999414997230397,0.34158999228563264,0.4578094356737472,0.24761133871399937,0.4179113041997965,0.4705917421016095
0.303284075963518,0.5615674527112196,0.22378505563827378,0.5002661747017022,0.4441950152739411,0.3363057182401884,0.15275529645481048,0.3938047568750285,0.40294291703852864,0.34633936806166915,0.3015663723949616,0.4582703701244286
0.2586470492133484,0.5166777039130047,0.18959929821377527,0.5838481236852934,0.4256278851408881,0.4105081964753417,0.18875950965550872,0.3911087768973471,0.44821222790406284,0.33780863850753384,0.4080912112187807,0.4671338379149659
0.2952337195699007,0.5562519045512386,0.2417675836969206,0.5633369692368205,0.4242669909676173,0.3744628087631517,0.20408042432203838,0.4523840014067729,0.451366887082723,0.35633420656032383,0.4071326632991199,0.510889879696909
0.310756942425653,0.5297358690212317,0.2880518210890217,0.5472328836207911,0.5054321277523612,0.4659735654445842,0.17782589566051005,0.4909800951177075,0.4118271667087637,0.3814955202560524,0.38785679788491,0.4234161930087343
0.34174925807359197,0.46883350490840053,0.23996678001395977,0.633819610451807,0.49043459768047676,0.46566231839032884,0.24496549456366656,0.44405370475887795,0.42939185316153217,0.4529360661748977,0.4489375340559156,0.4991916888885752
0.33487471622519616,0.5907342833794017,0.25162590867484214,0.5646350630259979,0.40774887262509096,0.4778759980483507,0.20367303656802532,0.42418674036828946,0.4127319296257522,0.3718546211951769,0.41403608393255104,0.652253650175785
0.33615250732431573,0.5270162301203196,0.28476806016662204,0.6328219108544163,0.5099779166591021,0.5886904024898734,0.19756013999078326,0.53072048776976,0.41473968004421197,0.40848759817468716,0.31530906887857424,0.515293280140061
0.37163368203022173,0.6337975515651144,0.31380057075883605,0.603916386638065,0.4934055295860636,0.5350045869535207,0.22034555510509873,0.49354627449165184,0.3797558113311175,0.4300434793108847,0.4330647827421767,0.5825500781373463
0.3544140665154867,0.5402435484960286,0.21616581973735047,0.6090524284756832,0.5188411551120898,0.4054601770693628,0.2442104328661992,0.5202095338264782,0.4044801920352359,0.4509884573484064,0.4403090435183334,0.5816908779621293
0.35637900845067044,0.5379510045037803,0.3007830318362556,0.6602502844648421,0.49259775622458607,0.5299322611973288,0.28004852758271825,0.5555746831499804,0.41611709573946487,0.42406176918491045,0.4220998672681701,0.5606437164266286
0.42155345168772423,0.6335084684265385,0.27844885874426895,0.6465240110411313,0.4170720764187289,0.5256768223724737,0.21556842438204887,0.5835770667119741,0.46779224957701654,0.4981799466027109,0.42111796186275396,0.6259045953940249
0.47335362564133887,0.6474481623644561,0.3405866160207085,0.6377265520890008,0.47209382638389186,0.5380838895049016,0.23641553736341153,0.5330141589336186,0.4301342718562736,0.4335249471954162,0.4058440704016897,0.6410989302756882
0.38377700619447475,0.6436944924967959,0.3745980580968764,0.6428469070149896,0.4026975848735887,0.5199175458564357,0.344486388158599,0.5226759263530762,0.4144879584694778,0.47235199771491193,0.4614510526090665,0.6600599837938137
0.46029944972533215,0.5998754578394533,0.35316681671279887,0.6662941938006407,0.4431112272141359,0.5933438893466338,0.29337210062191776,0.5242205304536182,0.4676263351590762,0.41108913828516347,0.44878658171159114,0.6450749981557193
0.4441901007571471,0.690760997200089,0.4063920915785604,0.6706857627421845,0.47140287746133,0.4449898786179358,0.3725278588084844,0.5445862386500202,0.43588909006027415,0.5017013637274961,0.4137690034911826,0.6291303712840924
0.44142715044075054,0.6050662621530347,0.31651139146335106,0.663095673014717,0.5444717524292476,0.5213822202452835,0.36406616832753835,0.5988443690724717,0.4484264857120539,0.5001617328788655,0.46610540216196605,0.6322825238024654
0.5292517970554785,0.6513041477631115,0.35212053952366623,0.6429809587356797,0.5029422788974062,0.6175885200492566,0.36344166020620666,0.7148550251752267,0.4321584035717415,0.5036331658509905,0.4663659505175319,0.6477397126253174
0.48148635787023064,0.6446174102203576,0.33660275339538975,0.5875964350902446,0.5111616506291728,0.6115612768115839,0.4152009582343428,0.6305183293193066,0.5008020534401927,0.5019304481408174,0.41540429243740057,0.7525242052373282
0.5761538034132675,0.6663172431083075,0.3923805963526732,0.6997081070056903,0.5312571543501226,0.655141567516923,0.3712423267117706,0.5945765539236447,0.4593183513553465,0.5629179598220706,0.4624563329008185,0.5711701776848647
0.48907805303671237,0.7197634045174195,0.40360061506318534,0.7030550491147053,0.47348032309092214,0.6114234795213809,0.41902222825149965,0.6201010833964425,0.4893102038230617,0.5860505982854917,0.4592579164805545,0.7083304667114911
0.5467542671162317,0.6651676912506607,0.4000998522521255,0.7721426794747677,0.5458200669224802,0.6166471161206085,0.4389346784910497,0.6192715413837846,0.4427447583659989,0.6670014800852728,0.47225291161432703,0.6491576538754272
0.5287182528358128,0.7159693730270514,0.36479677095923985,0.7485806583621822,0.5141943247797305,0.6850542583761212,0.4619276468632166,0.5814661302198524,0.4657550928984762,0.5525343519514031,0.5087324620855538,0.775334443515469
0.5137204315929537,0.723818798023011,0.4234805503291259,0.7852394750089768,0.4713440862925923,0.669899069119523,0.38967005818543465,0.6474234380203584,0.3747929110151029,0.6114418191535237,0.41695006217771446,0.7288736653922092
0.5768925648135289,0.6307605491899668,0.4162696544389558,0.8175172946817868,0.4840109237986991,0.5992819205241705,0.44116791928570004,0.6694208192622727,0.5148915783842895,0.620525907220984,0.5597996000894444,0.7015042878080237
0.5514325957352425,0.6534735986517975,0.47024405055719776,0.7479777200681212,0.4940576963978885,0.7252298945561377,0.5185702394239775,0.6666353185286297,0.5753639801374815,0.660700448136856,0.5116408327501905,0.7884096323826755
0.5885795876875414,0.6847632220861049,0.4398545377474908,0.7241597371696095,0.5221650119582807,0.647996388863538,0.4966322873599793,0.63216100199577,0.42788499286804776,0.5947203490974019,0.5291181314824541,0.7325937469257359
0.5655490133508019,0.6759634452991168,0.5102687925850533,0.7993489329758146,0.5485328829734362,0.7428485507223808,0.5353665434437147,0.6683784834813048,0.5640877316235966,0.5994460951733358,0.46672839356225665,0.659879272610572
0.5253794167345871,0.7100995608289091,0.4765980024432968,0.7463347285014518,0.4832068755593873,0.7222550910959047,0.5538447533857475,0.6439635392788833,0.5516611016088468,0.6330414360617479,0.524928408093701,0.7500172125197839
0.5696910955963963,0.6193707614395509,0.39176662634220116,0.7657542273681321,0.48242175197465575,0.7479069091885266,0.473772117024217,0.6618869868984986,0.5415857900071602,0.6173738055933431,0.5114774413573384,0.7512333046079642
0.5780911844958934,0.721108247932928,0.47195796798823303,0.840843270946607,0.5506359522449239,0.7753213922825499,0.5076387695816171,0.6028722000480795,0.4986565238792316,0.650091108894979,0.5775866988498416,0.7100425746956632
0.6173678162670715,0.7182278634871287,0.4227112359387927,0.8080793660179851,0.595929423209832,0.6953449395791201,0.5793488392262373,0.7107827385735087,0.49534752084874495,0.6266646647141703,0.5682694706795779,0.7112343313682501
0.5388843287896271,0.677597504800551,0.5332276688425964,0.8342271074891445,0.5410284116553017,0.774372755986556,0.549298397883317,0.6683756415964085,0.5603418120106252,0.6651006384484371,0.5402407601368333,0.6255892352046393
0.5748524509713575,0.6243341903454621,0.5584582201375395,0.7354134735653951,0.4778923268498309,0.7501813206594029,0.4972797746784543,0.5710356652039772,0.49716028303483867,0.7112126673356409,0.5263656462546374,0.5831688414737927
0.5024859637438089,0.6732714252204294,0.49862914140344744,0.7952303757512059,0.45233407892414657,0.7476183031924184,0.5610920311395103,0.6709336163349222,0.4678788757605943,0.6758835808495222,0.5779441124465506,0.5929155556581482
0.6005122810582928,0.6452548896254952,0.5228097252313223,0.8418966524826416,0.483556658944096,0.7640951872521361,0.5657755202175921,0.7070640423901873,0.4907849451372791,0.6946601881872904,0.5479453933118381,0.6963696470328408
0.5245859152445693,0.681726316053123,0.4428661823513563,0.7430211687287787,0.4635462836429167,0.7466511609334252,0.5323114816252288,0.8018999388197485,0.5244461007108803,0.7123220971982565,0.5349974831991344,0.666154271748639
0.49052764568582574,0.6482486639604033,0.40989854179141794,0.8047874500187951,0.4175285605091639,0.7741013864163728,0.5435770616429849,0.6372453005641269,0.5098782716409039,0.7166388833059596,0.6271278782481797,0.6634725618701623
0.5601362180883416,0.6721567137545965,0.4858302759347128,0.812886674561262,0.48767352887172843,0.7859914339101631,0.6033905174902845,0.7362993158221696,0.5063775256746484,0.701858365205454,0.5872376500444715,0.6575750601999826
0.6045806636132158,0.6175307744417581,0.5000247466318576,0.6990366098854457,0.5227209390611811,0.7503968645950052,0.5982251524340619,0.6256748093328396,0.5152971426130436,0.624614591145165,0.6327429064238439,0.6818398951764826
0.4883410003417601,0.6824607351874743,0.44530873264695653,0.8593623040120248,0.3940396255685231,0.8268288389101919,0.5242835861392098,0.7026911569383927,0.584324804059328,0.6445339155557278,0.5933598215696664,0.5719897130678507
0.5009512556192882,0.5247829299507967,0.5155811836844891,0.7605846955847272,0.3882770835996093,0.784881643435639,0.53414485958334,0.6852200019782994,0.5237886711295154,0.7481639567651849,0.5918597563116309,0.5921767103905037
0.509194547683692,0.5656892102642687,0.5246703877650049,0.7809302896341179,0.390535374561253,0.7335105100466874,0.5611622532654571,0.6394399964411284,0.5235725965859617,0.6594740974231599,0.5877456420143237,0.5633959358418764
0.48612868320501823,0.6148656361455489,0.538010417975268,0.8521297486276008,0.355379598148229,0.8004104553159256,0.5754602666868621,0.5936904292775135,0.4662935438298855,0.6833520799021985,0.5757205948382569,0.5823916420446248
0.5425863729329604,0.5250823441666904,0.5761040496311352,0.7027872218460445,0.4218034358347244,0.8020448419931868,0.5715093969565774,0.5891886783103535,0.48278956425476327,0.7298537814415449,0.5661310774682646,0.5226651088690795
0.4849031584388661,0.6028700260665851,0.5415171785341972,0.7906544972877089,0.332680885014418,0.7160382809553577,0.5384042012207197,0.6688198209743922,0.53614380450909,0.6502904274581429,0.6406434701396324,0.508787875795973
0.48054251753006333,0.5144683799839953,0.48733217523369216,0.7462087653706916,0.3999512643803206,0.7878158379571462,0.5859319712795613,0.6773612381186568,0.5112634542055172,0.5995544393748502,0.5544603983097307,0.5892415544460541
0.5272708127906963,0.5547428528433542,0.504978196245747,0.7593903657751486,0.3818188102946745,0.755873163014549,0.48412789892660824,0.5942407884524843,0.510473557150549,0.6442306605997425,0.5747650593285853,0.5280697620606433
0.4621492410612543,0.5032357048511213,0.5232698034972773,0.7156537831975972,0.38596733496038627,0.7793881617878431,0.5312182694328198,0.5855657019348303,0.4757441268808411,0.7078189692876843,0.6080922049418884,0.5219683133025483
0.5033711961240466,0.5100950766971486,0.44720001175981855,0.7979810430302298,0.29732184950643703,0.7564238337250875,0.5647752006195629,0.5558740882965737,0.425819553584364,0.7099955327341549,0.6351319105260939,0.48043789225722333
0.4349638420640396,0.5224373151657499,0.5470514390722172,0.6856335433340127,0.34736578411754127,0.7753980168099021,0.5596083045458793,0.5763001775509454,0.4641072234709256,0.6909573929915357,0.6355934172562532,0.5232832184987769
0.41542381064961015,0.4993013531874895,0.5237952468032475,0.7376889460006281,0.343470022907321,0.7608630369078253,0.5505230765061769,0.5400858882214606,0.45482083233255005,0.7519542799602926,0.5390741476417595,0.45727198890614856
0.37955405227358635,0.47619645882567696,0.46942258881336557,0.7350692102456118,0.35699784097751575,0.6483723281866646,0.5653587405191923,0.5936154399817853,0.5272924516075,0.7043517006870917,0.5774436358461196,0.4244884001302123
0.5257913372969348,0.5641090684925157,0.4461442869492339,0.6981514231837463,0.33028412505076865,0.7428749314707275,0.5522828997885141,0.5734314516848342,0.4176513118025328,0.5720604308034302,0.5600531145175704,0.3909491649231458
0.4238914273778333,0.46712650322547383,0.6354938582757031,0.6795856204433784,0.28750434539187186,0.7556159629794285,0.5252424428680815,0.5438160310109345,0.42717335304372633,0.5682169996519142,0.5088513206193825,0.4535717911938051
0.43773448651275493,0.41623249030354004,0.4996903882945764,0.6684950342965462,0.3413458347152081,0.7550388668558284,0.5999493642080526,0.4703630221102531,0.513163523436222,0.6275138606820819,0.5555395895122015,0.37399877277670274
0.41609956296670664,0.4790097483970088,0.4980202606607677,0.7102417131343667,0.34205039833987594,0.7688713837166352,0.52113083031872,0.4376221685988597,0.42783981476766225,0.5532213204217931,0.4855175064417454,0.2788829615596916
0.41408256185332526,0.46265375970978057,0.5294215944291188,0.6743275901276916,0.3329282133412713,0.7212055471582969,0.629055170490949,0.4623697775543589,0.4105075633399223,0.6571294630305428,0.4905861669989845,0.32723877338438334
0.39933904405414555,0.4665115824401957,0.4871161444323906,0.639620857714904,0.24963478774932812,0.7539481587203644,0.43957612302247484,0.5278856906588079,0.45569052859249115,0.5302077164172185,0.5029976788165048,0.3530680700226129
0.46767608890668544,0.4768955344133744,0.4466675371229061,0.5848659063544372,0.287927667251355,0.724802422012625,0.5402044257584807,0.48939413655090513,0.39235760223376664,0.6041169056485574,0.5814582810348033,0.27610430367521527
0.33329509882621017,0.35740149318771336,0.46151927950322885,0.623801574514509,0.2286475267226676,0.6575184984304528,0.4406016270752786,0.4380221251255587,0.4073772687920841,0.5531565363882303,0.4553473401900537,0.3630695810127207
0.30144999287864566,0.42479209613855407,0.3836495479111551,0.6260832366703496,0.24829866107367515,0.6377577038999875,0.4132471755112005,0.4683656513360326,0.39091630907007435,0.609605988595851,0.5568936286860035,0.31593922193505886
0.3145946722489796,0.41657372263479886,0.44806289840119345,0.5890998939615372,0.2747884697627673,0.7124520950898032,0.435047808439267,0.44081594017414566,0.4181023977267526,0.6588830892280217,0.3793780143422362,0.2773960146125257
0.2912297556299802,0.36040961105550184,0.34200786850997555,0.6365595804335134,0.1893443516138112,0.677186164722398,0.3439427781359407,0.3651133788439,0.375452982281512,0.5717849861397003,0.5001122964281343,0.37068414830903706
0.3694615266293078,0.3591869221955039,0.4209325398833883,0.483594724549084,0.3350466416143705,0.5606883131109739,0.43604818001635026,0.4518034754918766,0.3888346186067149,0.4588731840133907,0.47110745259170816,0.25983249427108684
0.36313853172918714,0.22024501137678631,0.41956846781771273,0.6528424964306858,0.27309130183416663,0.5798120309038003,0.4444758955532114,0.4210979695099218,0.33185778609463,0.5227099024964584,0.48656374448084416,0.1996688888812173
0.278748544166718,0.3059068144109967,0.3194259628450684,0.5275744737261334,0.1956191095126305,0.6645196078072699,0.3957000854751419,0.31146055274136414,0.34797701520492147,0.5088197970342249,0.4675758227135782,0.23499725503126176
0.25165509106140116,0.3892582016313003,0.4648129793524541,0.47381229816072956,0.1975681167182806,0.6102266245044827,0.4092408744360651,0.33383047962061635,0.3589702921834893,0.5339927124450101,0.43029030104622606,0.25847917746628624
0.28661729500545036,0.23840231487388933,0.322892665106186,0.4346720723090376,0.2105199422163757,0.5178030950675024,0.43846188910172273,0.3686546167175861,0.3231076709661585,0.583152076113721,0.4386322695790392,0.2483805116916706
0.3518280471523646,0.2786084151138257,0.4120640203534728,0.5293334269999145,0.2035568811275035,0.6002831606123676,0.3824561453135621,0.38960778217425157,0.3634169150387485,0.4958899410116314,0.42579418004061037,0.18885085261903065
0.16602534929980464,0.3023304240842634,0.33589457124570704,0.5031564177812594,0.1606823557259525,0.6129220338158256,0.43917196983023615,0.3622878842363336,0.33140218750688316,0.4760324790213307,0.40840274224464995,0.1255076989580637
0.2993912248963741,0.30530346647460527,0.365748291716366,0.45648877007407174,0.19563205054731908,0.5873284545019578,0.35836923439780183,0.2535856191748583,0.24724982633110845,0.437918473923761,0.38839359996959205,0.2228435599683811
0.22432416454831583,0.3390534157205972,0.3163155813854132,0.4497670324490559,0.14097970446094402,0.5460886746370986,0.45889562523098276,0.2598126623461559,0.38439895088678616,0.4213526090915717,0.47735841999016043,0.17892443576194467
0.3065271951716477,0.1973761970198821,0.4478158118404698,0.4452815658039639,0.17116195760137654,0.5287297571782988,0.3690225729709812,0.3212411576763091,0.2963346686472777,0.42468784753041083,0.40496032120459297,0.13412005685246775
0.21047479804492286,0.26156151446723325,0.3771601221030287,0.40725053040702636,0.25519500073439716,0.5034906947316798,0.30359403254755135,0.22689052578188443,0.33641118208272086,0.46093786227025896,0.46813018189684497,0.17918727663477657
0.23762350798856963,0.2870862447046065,0.40495695862834435,0.45967503861761083,0.1853611011628689,0.4934786328164738,0.38134644858925265,0.2565173417016277,0.3202300632370338,0.4835049507500398,0.38068815669858214,0.20790352603671897
0.1802033580823031,0.19486381018332652,0.35375317785702,0.42480852791140084,0.17115727747742301,0.5169521789263272,0.35182707934582497,0.21931137286268593,0.2932676386859281,0.45767034067370743,0.37953297370968386,0.10829102326054761
0.1969851124003462,0.23924310059902767,0.3440241881035259,0.38113742475570134,0.23979324228042195,0.6036787148476142,0.26907220129134857,0.24638718702867207,0.30161233922646125,0.4191861381316394,0.36108173877142763,0.17320828954072248
0.2915137504306636,0.3097178795675697,0.3144493619673516,0.3056282784072245,0.19248822021244769,0.5963443207730293,0.40677204029304875,0.1541589012855059,0.29552900243938107,0.4468737096130214,0.35087829772520046,0.1470809088056537
0.26284719354500824,0.2820894956125983,0.2919945370014236,0.4187972879566882,0.2018781334613254,0.46721144405042087,0.2966402772367866,0.14601742800112258,0.2395288910775746,0.39611633484450215,0.33997405141596343,0.08044203654442068
0.20681118281484875,0.24659975333290762,0.32405737372790755,0.33030793186521307,0.15708428856999535,0.4005111187719242,0.33136970888269596,0.14999792968458575,0.2956248949310688,0.45741644131926784,0.35909237311687964,0.08043604377962348
0.18291864369880342,0.1175890701140939,0.29952802382570354,0.2958906393439461,0.21618857506296738,0.45086711648942795,0.41418920986821284,0.2650403809714749,0.22093271370822706,0.35555335207013855,0.3472089072501193,0.07394759284480962
