I,II,III,aVR,aVL,aVF,V1,V2,V3,V4,V5,V6
1.156463029279613,1.075608545390977,1.1680741103746743,1.1304277098220108,1.0090995239148262,1.2032007416885642,1.1479598104450033,1.1486972202434518,1.0092698796492705,1.0702953673800941,1.070777299035923,1.1761521590527189
1.1401720674008047,1.060164949284936,1.1512494153157848,1.1142972247404246,0.9946971011841188,1.1856148764716237,1.1309896230599217,1.1317784482085202,0.9946021838390625,1.0549354867873157,1.0550690981615045,1.1590216838937304
1.0979643748532582,1.0200555422947946,1.1075977330953044,1.0724082375217006,0.9573272570708858,1.139834468190992,1.0868779011572594,1.0877854604787955,0.9565602197219415,1.015115133785705,1.0142292413254068,1.1145980064797347
1.032114807767286,0.9575870604048047,1.0395596937061524,1.0071653345559004,0.8990897623868773,1.0686762114250596,1.0182287156217333,1.0193357933906988,0.8972479662948135,0.9530189991059624,0.9506812540698765,1.0453366941695148
0.9463731195670143,0.8764144051980286,0.9510681444047606,0.9223831688128655,0.823359397454327,0.9764332618091526,0.9291065626421965,0.9304955854995828,0.8200776656248413,0.8722093170423204,0.8681961293521521,0.9552230999772804
0.8445541757490896,0.7802575112746893,0.8461251602626926,0.8219442158131286,0.7335704602946541,0.8674772569494098,0.8236490024017736,0.8254042992531972,0.728521374748883,0.7763105842348166,0.7706127943095964,0.8483124309752157
0.7305379538815379,0.6729013462521686,0.7288020441666453,0.7097987736279175,0.633216766628464,0.7462583164227811,0.7060666590778565,0.7082747209916905,0.6261109656734897,0.6690095596692931,0.6618381102596943,0.7287297482934848
0.6082695436037604,0.5581959107650097,0.60323932681845,0.5899649628791535,0.5258516498755469,0.6173050417770272,0.5806432208421077,0.5833929609476091,0.5164381253749082,0.5540552646773984,0.5458468727000532,0.6006699671202268
0.4817591466265355,0.4400562384649145,0.4736467667350688,0.46652872673945067,0.41508796115487945,0.48522451653072146,0.4517354398604575,0.45511845324589645,0.4031543557990785,0.4352589829365845,0.42668181130840355,0.46839785670155976
0.35508207673201947,0.32246239602074606,0.34430335024859826,0.34364383093211676,0.3045980692846229,0.35470230617324716,0.32377313229310606,0.32788395590389424,0.2899709738616354,0.3164942604701091,0.30845358994259764,0.33624804034157757
0.2323787597737435,0.20945617485747547,0.21955709518830463,0.22552882339681468,0.1981134948459597,0.23045608663135453,0.2012467494514418,0.20617887139850494,0.18065911144790864,0.20169690564703557,0.1953267576998992,0.2086249954023525
0.1174061062250385,0.10435635946980652,0.10315495106130433,0.11566070278941305,0.09882652640640281,0.11585120261762742,0.08766403564194511,0.09345176100623158,0.07852282252668048,0.09435774027793217,0.09051872665821975,0.08939296312441976
0.01207897792562297,0.008757570185959978,-0.0030722325693806414,0.015711410807356444,0.008291158454010206,0.012524493667727237,-0.01529683113278165,-0.008645730843174463,-0.01480761365165582,-0.0037853750088925123,-0.004430475642243488,-0.019540085058258907
-0.08236485585663508,-0.07621547820721937,-0.09787479517616526,-0.07314238311752262,-0.07242606620338757,-0.07831197069841152,-0.10642383970536551,-0.09891321701119678,-0.09823496383426111,-0.09157728042389669,-0.08840397759377587,-0.11689200590106134
-0.16499157616941815,-0.14974041222342324,-0.1803258934013594,-0.15003939018128246,-0.14253600972033467,-0.1558082517931303,-0.1848436983083923,-0.1764899270463712,-0.1709412336205878,-0.1681536252000956,-0.16059965753073152,-0.20170679029184377
-0.23517215812970252,-0.21129719967688007,-0.24982150105716774,-0.21443370220787206,-0.20152693921375148,-0.2194765417610467,-0.2500218345744077,-0.24085470718428528,-0.2323876678637912,-0.23294098214012782,-0.22053014372953383,-0.27335456689901017
-0.2925823709237583,-0.26066814968235563,-0.30608040912569,-0.2660947916491316,-0.2491645267629334,-0.26919116357905454,-0.30176239553591566,-0.2918260203475786,-0.2823147506707289,-0.2856568476162549,-0.2680228144086746,-0.3315316021715115
-0.3372027778071485,-0.2979379126551512,-0.3491442257589198,-0.3051075115847912,-0.28549184940955136,-0.3051885710563235,-0.3402082476253788,-0.329561946145942,-0.3207422054019617,-0.32630964157036196,-0.3032197977287147,-0.37626030033884483
-0.3693187361047307,-0.32349348031110514,-0.3793773762787456,-0.33187209572247267,-0.3108293891576514,-0.32806734883429944,-0.3658409766752189,-0.3545601808761187,-0.347968994671753,-0.3551987075139572,-0.3265779717922837,-0.407889203411055
-0.3895203972106553,-0.33802418566659265,-0.39746710317695083,-0.3471041583976875,-0.32577503297365534,-0.33878821238670437,-0.3794808879178167,-0.367658037521903,-0.3645733203480688,-0.37291431252817175,-0.33886896464408006,-0.4270929911787334
-0.39870270658836654,-0.34252170303852514,-0.404423466115213,-0.3518346945738386,-0.33120407278636005,-0.33867400801953634,-0.38228700598551174,-0.37003244575414207,-0.3714126235525785,-0.3803376472637606,-0.34117915427087137,-0.4348724812130188
-0.39806540377060246,-0.3382800480443512,-0.4015793419251049,-0.34741007984221983,-0.3282692054869379,-0.3294097128710696,-0.3757570749106025,-0.36319995193073384,-0.36962358466065326,-0.3786408259411018,-0.334909668601493,-0.4325546288655966
-0.3891130223593947,-0.3268955776020556,-0.39059042460809373,-0.3354920704220147,-0.3184005329289373,-0.313042434911854,-0.36172755812534635,-0.34901671909662885,-0.36062212330136784,-0.3692868863501966,-0.32177638550685084,-0.42179252726869926
-0.3736548900181056,-0.3101939293165954,-0.37341203907584153,-0.31798676846931284,-0.3032801551306968,-0.2915414081614185,-0.34220212585638105,-0.3294695602022704,-0.3460935896818309,-0.3540252453428241,-0.30362837379081226,-0.40455478750200274
-0.3533697420550161,-0.2895481976968846,-0.35163067175008783,-0.29633423380799195,-0.28425396634771743,-0.2664030084202473,-0.3186337164094272,-0.30599511543715313,-0.327455085335044,-0.3343725419169653,-0.2818033090822259,-0.38250228758170896
-0.3295846133641363,-0.26631057689047394,-0.3266820642032524,-0.27194497272424106,-0.26255832755779945,-0.23918762773786154,-0.2925307856304135,-0.28009989056431467,-0.30594232750870676,-0.3116111417536439,-0.2576997439395606,-0.357078589523418
-0.30368171783939707,-0.24173683631598716,-0.2999609896743693,-0.24613289106618957,-0.23938511128239007,-0.21124983687579652,-0.26524792509328027,-0.2531247675080022,-0.28277886543694714,-0.28703108794757615,-0.23256613507220697,-0.3297155137204728
-0.27687278891949924,-0.2169120066224625,-0.27268070361803204,-0.2200338501087228,-0.2157701021254398,-0.18373736356330986,-0.23794764662393242,-0.22621777736713566,-0.25903148130702236,-0.2617592974871531,-0.20747229194019196,-0.30166180938120224
-0.2501990795879129,-0.19275037968935213,-0.24587294370439378,-0.1946056665534816,-0.19259299677340241,-0.157591092497381,-0.21160038230024017,-0.200334100415307,-0.23561019025931862,-0.2367595612544406,-0.1833093767541783,-0.2739831545289203
-0.22453136237287835,-0.16999550862652316,-0.2203879298191671,-0.17062811252886265,-0.1705774039952351,-0.13354506534271218,-0.18698448445203858,-0.17623606610078063,-0.21326824038735148,-0.21283254402517948,-0.1607899044754654,-0.24756215600192763
-0.20056992934740522,-0.14922020777425668,-0.19689436406362418,-0.14870291559001844,-0.15029084464239822,-0.11212648073172744,-0.1646862256611279,-0.15449315304649383,-0.1926021127377656,-0.1906157844687856,-0.14044774281598862,-0.22309834945351018
-0.17884459212927314,-0.13082655270324814,-0.17587943075459614,-0.12925375871885672,-0.1321447516488554,-0.09365569426457311,-0.14509979876127302,-0.13548198905005565,-0.17405152131033447,-0.17058369514834917,-0.12263811223831929,-0.2011081993519398
-0.1597146818810311,-0.11504588021460763,-0.1576487964244739,-0.11252628032404134,-0.1163944700310738,-0.078246218509118,-0.12842731683820416,-0.11938635108374801,-0.1578994130579611,-0.15304756252063562,-0.10753758595566543,-0.18192509898047424
-0.1433690493099983,-0.10193878833985923,-0.14232660982120812,-0.09858807424099189,-0.1031392568880235,-0.06580472300095276,-0.11467881322961633,-0.10619716529452497,-0.14427196788667765,-0.1381555469360855,-0.0951440899318706,-0.16569937043735689
-0.12982606466826319,-0.09139513634094183,-0.12985550190830844,-0.08732868973188343,-0.09232228140117825,-0.05603103424339047,-0.10367224152516961,-0.09571250700401342,-0.13313859865564498,-0.12589268263881379,-0.08527690288141522,-0.15239826463581735
-0.11893361775268395,-0.08313404471020827,-0.11999658586484421,-0.0784596314856467,-0.08373062483451482,-0.04841813570746643,-0.09503347556648908,-0.08753760070851212,-0.12431195117715352,-0.11608087776661027,-0.07757665626941536,-0.14180596130407072
-0.11036911790488894,-0.07670389517042615,-0.11232945708544413,-0.07151435961796848,-0.0769952805345134,-0.04225216783193798,-0.08819630944716471,-0.08108482007899279,-0.11744790421662285,-0.10837891435094016,-0.07150533431162344,-0.13352356898531764
-0.10363949401127569,-0.07148233067477691,-0.10625219318029629,-0.06584828967129076,-0.07159115393015751,-0.03697895008294332,-0.08242720065579288,-0.07562872416083309,-0.11204556949260143,-0.10228244831694316,-0.06638639178620834,-0.1269691250377455
-0.09808119450301159,-0.06698817167562476,-0.1010653198213671,-0.060939523643143284,-0.06693256150261889,-0.03260175939455983,-0.07749727597630957,-0.07102052750954933,-0.10747846973491362,-0.09713573108287599,-0.062058218557610685,-0.12141080940800184
-0.09324778984977553,-0.06324590584542707,-0.09669154055816817,-0.05681457614261153,-0.06298084500336308,-0.028938866626551395,-0.07334387167038194,-0.06716695684637673,-0.10359889208376191,-0.09270529323334341,-0.05844397722756791,-0.11666773581006144
-0.08917913009264124,-0.06010650649858249,-0.09303274519963382,-0.05331994748351627,-0.05964032801759277,-0.02582240786995744,-0.06980131047247187,-0.06390317410866311,-0.10035408784391549,-0.08896691940703698,-0.055390793256283766,-0.11268286481083363
-0.08572500712353846,-0.05743053012026777,-0.08993482952805676,-0.050309869890746914,-0.05677994716624632,-0.0231014098106592,-0.06671918450279832,-0.06107975028596029,-0.09760868837223774,-0.08577916040719118,-0.052760041463815625,-0.10929891426911961
-0.0827470694169289,-0.055091894799840196,-0.08725766320396841,-0.04765249179873892,-0.054280686253381005,-0.020641789729379825,-0.0639623552673379,-0.05856266542002438,-0.09523932083178971,-0.08301299057838676,-0.050427346030074385,-0.10637260328020358
-0.08011982538784446,-0.052977880230837666,-0.08487508976613845,-0.045229877851473685,-0.05203557626617267,-0.01832635550168442,-0.06141095365782419,-0.05623330860481574,-0.09313460819183032,-0.08055180780655014,-0.048282580494824444,-0.10377465217585263
-0.07773064339188744,-0.050989127710978285,-0.08267492663157561,-0.04293800890247866,-0.04994969537491571,-0.016054805597979796,-0.058960379951748354,-0.05398847798649889,-0.09119516922781636,-0.07829143351895425,-0.04622986775768361,-0.10138978252431681
-0.07547975172523101,-0.04903964014216054,-0.08055896509552676,-0.04068678201482729,-0.04794016893302303,-0.013743729083514795,-0.05652130381235864,-0.051740380763442756,-0.08933361852140233,-0.07614011268421743,-0.044187580078123526,-0.09911671713032884
-0.07328023862461835,-0.04705678203046379,-0.07844297033147754,-0.038400010461139174,-0.045936169477026445,-0.011326605618380224,-0.05401966428866064,-0.04941663318622028,-0.08747456646044062,-0.0740185138123045,-0.04208833907546913,-0.09686818003510472
-0.07105805226736318,-0.04498127948614734,-0.07625668139115212,-0.03601542372357953,-0.043878916726576206,-0.008753805457508644,-0.05139666981541734,-0.04696026055760872,-0.08555461923898142,-0.07185972895452618,-0.03987901572889893,-0.09457089651634298
-0.06875200077134967,-0.04276722022365137,-0.07394381120451331,-0.0334846674938601,-0.04172167758444128,-0.005992589450674354,-0.048608798213149056,-0.04432969723258956,-0.08352237885727283,-0.0696092737035391,-0.037520730377445216,-0.09216559308822528
-0.06631375219503252,-0.04038205356159613,-0.07146204657976248,-0.03077330367323814,-0.03942976613650909,-0.003027109042494028,-0.045627796688133236,-0.041498786618348445,-0.08133844312176047,-0.06722508719334593,-0.034988852719993524,-0.08960699750141599
-0.06370783453743667,-0.037806590422782616,-0.06878304820333955,-0.0278608103725174,-0.03698054365178603,0.00014159372757413128,-0.04244068183240465,-0.038456781174275464,-0.07897540564508813,-0.06467753209929551,-0.03227300181528308,-0.08686383874306279
-0.0609116296288015,-0.035035006788065544,-0.06589245821835407,-0.024740593009372536,-0.034363400749289855,0.00349560625519309,-0.03904973159620394,-0.03520834450407867,-0.07641787739434563,-0.061949383458494246,-0.02937702722989474,-0.08391883373983888
-0.05791524200185484,-0.03207491782888305,-0.06279006288493819,-0.021420222496816983,-0.03157937463552243,0.007000575286102233,-0.03547231298788067,-0.03177359626006941,-0.07366294919388013,-0.05903558871568346,-0.026318604406359015,-0.08076840195748838
-0.054721500688110006,-0.02894737689173517,-0.05948979035200604,-0.01792143198032169,-0.028641154347830645,0.010646746639318241,-0.031740884434187586,-0.028188080186351907,-0.07072018538959444,-0.05594327101030703,-0.023129240206100098,-0.07742266931045036
-0.051346088909573574,-0.02568481688841266,-0.05601954977946886,-0.014278648956569794,-0.02557345932230258,0.014487597255296773,-0.027865784227194924,-0.024443098454816424,-0.06761116641462772,-0.052691966501015486,-0.01980693514831468,-0.07390575043465723
-0.04781754982882277,-0.022262273507879647,-0.05240591660389881,-0.01047027221316249,-0.02239406998823908,0.018535876118424974,-0.023796173382690355,-0.02049572880418089,-0.06436558019832646,-0.049313095434941834,-0.016307996739172093,-0.07025184846678938
-0.04415243637486421,-0.01864996802501497,-0.0486017178154059,-0.006463313851150623,-0.019059920949168998,0.022802286038543607,-0.01952004424057222,-0.016335505312728798,-0.06095391852354733,-0.04578979819767151,-0.012622025551815566,-0.06642725565305
-0.040302344757889304,-0.014838437880160983,-0.044588880079824804,-0.002248269323536948,-0.015557658895416679,0.027296561148845676,-0.015027529695705075,-0.011952892808199285,-0.057352446803294425,-0.04208805485237304,-0.008739551323235896,-0.06240245048067887
-0.03625378401004299,-0.01081906751982363,-0.04035762115020646,0.002183481262039995,-0.011878509973587158,0.03202746690587639,-0.010309696049195054,-0.007339286867787201,-0.053552735652545064,-0.03819823740267012,-0.0046519680158323955,-0.05816676018086759
-0.03199719092279394,-0.0065840883966716505,-0.03589907826387302,0.006839673143305546,-0.008014488449133175,0.03700280008953337,-0.005358543008390575,-0.0024870138181430903,-0.04954715577891684,-0.03411155525022025,-0.0003515338174130715,-0.053710446932419345
-0.027523887642945503,-0.002126578969536929,-0.031205308142418137,0.0117271569033489,-0.003958396706354985,0.042229388803066384,-0.00016700368688181086,0.0026106692646264344,-0.045328877982667055,-0.02982005519471519,0.004168628858805326,-0.049024707861749034
-0.02282608167263575,0.002559535296585516,-0.026269286991706952,0.016851898470623485,0.0002961747515996453,0.04771309247307773,0.005271055395499135,0.007959574554959761,-0.04089187315669338,-0.025316621433880505,0.008914533374197474,-0.04410167504288306
-0.01789686586933814,0.0074794819305373595,-0.021084910501876244,0.022218979118946602,0.004754847302735277,0.053458801849521884,0.01096083431267812,0.013564583477838815,-0.036230912286533266,-0.02059497556347584,0.013891328864729081,-0.03893441549745963
-0.012730218445860864,0.012637641454997533,-0.015646993847334124,0.02783259546749929,0.009422454206208908,0.059470439005705464,0.016906599732339062,0.019429646708790212,-0.03134156645036455,-0.015649676577295105,0.019103300240957227,-0.03351693119472828
-0.007321002970346783,0.01803754738648171,-0.009951271686760344,0.033696059480827045,0.014303040602329916,0.0657509573382876,0.023111684915923945,0.025557784173884705,-0.026220206819004957,-0.010476120867165916,0.024553868188030462,-0.027844159051550407
-0.0016649683662742568,0.02368188623534216,-0.003994398163106036,0.039811798468838956,0.01939986351256038,0.07230234156727967,0.029578489718633083,0.03195108504973745,-0.020864004655912188,-0.005070542222950102,0.03024558916568849,-0.021911970932398897
0.004241251087543739,0.02957249750576873,0.0022260530964061977,0.04618135508680845,0.024715391839514607,0.07912560773604523,0.036308480589424125,0.03861070776350771,-0.015270931317184025,0.0005699881674565846,0.03618015540826232,-0.015717173649358193
0.01040013575695938,0.03571037369578746,0.008711588980282205,0.052805387335372614,0.030251306366959173,0.08622080321130003,0.043302190571013636,0.04553687999289906,-0.009439758251558494,0.006447561718124184,0.04235839492467423,-0.00925750896212457
0.016813280652489694,0.04209566029726159,0.015462796892756295,0.05968366856053262,0.03600849975981331,0.09358700668311269,0.050559219299875585,0.05272889866615965,-0.003370057000413549,0.012563432445088972,0.048780271498437895,-0.00253165357800582
0.023481395429316976,0.048727655795891445,0.022479344753791354,0.06681508745365373,0.041987076564148684,0.10122232816490333,0.05807823300624245,0.06018512996208127,0.0029378008022327693,0.01891801696635291,0.055444884687658166,0.004460780848078893
0.030404304387288444,0.05560481167121372,0.029759980999078894,0.07419764805146514,0.04818635320718933,0.1091239089934449,0.06585696451410446,0.06790300931000076,0.0094826434297225,0.025510894501884193,0.0623504698250312,0.011719247713598483
0.03758094647091628,0.06272473239660263,0.037302534580038606,0.08182846973605991,0.05460485799731167,0.11728792182886257,0.07389221324120997,0.07587904138979865,0.016262499062757334,0.03234080687361675,0.06949439801784454,0.019242265468410368
0.04500937526937787,0.07008417543926879,0.045103914963819096,0.08970378723489529,0.06124033112404459,0.1257095706546336,0.08217984519906549,0.08410880013190004,0.02327459578939919,0.039405658505450594,0.0768731761479771,0.02702741761476026
0.0526867590165156,0.07767905126025987,0.05316011213329702,0.0978189506207923,0.06808972465806933,0.13438309077758745,0.09071479299293533,0.09258692871727417,0.03051536160506965,0.04670251642325174,0.08448244687189879,0.03507135270728242
0.06060938059083715,0.08550442331446063,0.06146619658707802,0.1061684253119363,0.07514920255121986,0.14330174882790675,0.09949105582184235,0.10130713957743463,0.0379804244125506,0.05422761025485222,0.09231698862067095,0.04336978435299937
0.068772637515515,0.0935545080505925,0.0700163193394962,0.11474579207187616,0.08241414063648217,0.15245784275912508,0.10850169947856698,0.11026221439443937,0.045664612021983506,0.06197633223004997,0.1003707155999464,0.05191749121132223
0.07717104195838669,0.10182267491121391,0.07880371192061356,0.12354374700952517,0.08987912662799506,0.16187677365882902,0.11773885634964791,0.11944400410089046,0.053561952150870014,0.06994323718060878,0.10863667778996919,0.06070831699405018
0.08579822073195487,0.11030144633272011,0.08782068637622131,0.13255410157916026,0.09753796012104952,0.17157061710777144,0.1271941165183943,0.12885125080978765,0.06166567242407161,0.07812204254025874,0.11711103017752403,0.06973517046537109
0.09464691529338727,0.11898249774534307,0.097058635267839,0.14176778258042272,0.10538365259208887,0.18150687926377956,0.13689806286936182,0.1385204121156492,0.06996820037380962,0.08650562834469533,0.12582846855439248,0.07899002544186073
0.10370898174451673,0.12788663803676245,0.10650803167271436,0.15120089136780665,0.11340842739870924,0.19165342434635163,0.1468515161728232,0.1484303539082909,0.07846116343966561,0.09508603723158064,0.13477554429862026,0.08846392079248402
0.11297539083184106,0.13702449155855453,0.1161790448232354,0.16087083009022793,0.12163085948017881,0.20197848848964492,0.15702190691537007,0.15854879137978964,0.08713844197075447,0.10385447444054238,0.1439227412317059,0.09814967213571232
0.1224379288705535,0.14636600346156506,0.12609788555990814,0.17074620588657521,0.13006252054030315,0.21245067974247583,0.16737710013389256,0.16884385868554178,0.09603127729414149,0.1128302843648107,0.15324093674358022,0.10808391754315974
0.1321300824958267,0.15588152182795065,0.1362333711563583,0.1807955502349995,0.13867541282231866,0.22303897806832063,0.1778853954155785,0.1792841089442626,0.10512734395558795,0.12202587359922597,0.16270140179260542,0.11825551076184823
0.14204415841205187,0.16554182895534308,0.14655252130875376,0.19098785137398816,0.1474418935088673,0.23371273534531375,0.18851552689791368,0.18983851423798703,0.11439728507553451,0.13141093682648272,0.1722758009055756,0.12863090981944386
0.15214774902788353,0.1753181413568506,0.15702287176595306,0.20129255430236437,0.15633475613920655,0.2444416753662502,0.19923666326868225,0.20047646561206883,0.12381220696614598,0.14095556461757028,0.18193619217771684,0.1391771154394259
0.16240899595230346,0.18518210976105662,0.16761247432950552,0.21167956077928726,0.16532723060920812,0.255195893838583,0.21001840776596617,0.21116777307518156,0.1333436791313109,0.15063034385157978,0.19165502727268713,0.14986167104108714
0.17279658999462064,0.19510581911202024,0.17828989685365196,0.2221192293242523,0.17439298317135798,0.26594585838442497,0.22083079817814544,0.2218826655993178,0.14296373426664133,0.160406357715704,0.2014051514225759,0.16065266273953366
0.18327977116447003,0.20506178856927676,0.1890242232453228,0.23258237521709105,0.1835061164347576,0.27666240854054824,0.2316443068438983,0.2325917911197895,0.15264486825947338,0.17025518570523693,0.21115980342790466,0.1715187193456848
0.19382832867181365,0.2150229715078368,0.19978505346414,0.24304027049797094,0.19264116936512238,0.28731675575838417,0.2424298406522007,0.243266216535228,0.16236004018886666,0.1801489036235744,0.22089261565762675,0.18242901236627343
0.20441260092694108,0.22496275551818695,0.21054250352241605,0.2534646439673957,0.201773117284783,0.29788048340402307,0.25315874104232705,0.25387742770758387,0.17208267232560506,0.19006008358221393,0.2305776140491274,0.19335325600384548
0.2150034755404677,0.23485496240628942,0.22126720548515444,0.26382768118620514,0.21087737187268443,0.3083255467582147,0.26380278400384943,0.264397329462127,0.1817866501321957,0.19996179400075462,0.24018921810822377,0.20426170715676056
0.22557238932333618,0.24467384819358234,0.23193030747004878,0.27410202447557497,0.21992978116438627,0.31862427301636836,0.2743341800766381,0.27479824558744664,0.19144632226286964,0.2098275996068969,0.24970224090916437,0.21512516541919138
0.23609132828681612,0.25439410311697913,0.24250347364748406,0.2842607729170172,0.2289066295520631,0.3287493612885518,0.28472557435086143,0.28505291883545114,0.2010365005635817,0.2196315614364431,0.25909188909463,0.2259149730811241
0.24653282764250367,0.2639908516288691,0.2529588842405357,0.29427748235237966,0.23778463778450395,0.33867388259949266,0.29495004646698575,0.29513451092136855,0.21053246007201057,0.22934823683329691,0.2683337628757332,0.2366030151283579
0.2568699718023221,0.2734396523971177,0.26326923552497006,0.30412616538384646,0.24654096296711248,0.34837127988857763,0.30498111061577526,0.30501660252374563,0.21990993901755856,0.23895267944946352,0.27740385603201806,0.2471617192425059
0.2670763943785212,0.2827164983050656,0.27340773982924416,0.3137812913739378,0.25515319856190716,0.35781536800985253,0.31479271553829263,0.31467319328444915,0.22914513882135176,0.24842043924505014,0.2862785559114609,0.25756405580099406
0.27712627818367763,0.29179781645152947,0.2833481255345055,0.32321778644551014,0.26359937438752107,0.3669803337320227,0.3243592445258982,0.3240787018086647,0.23821472409624014,0.2577275624882651,0.29493464343046966,0.2677835378770618
0.2869943552306949,0.3006604681508016,0.29306463707459296,0.3324110334817554,0.2718579566192019,0.3758407357384525,0.33365551542025057,0.3332079656648969,0.2470958226467975,0.26685059175541886,0.3033492930738839,0.27779422123976194
0.2966559067328037,0.30928174893264987,0.3025320349360357,0.3413368721262023,0.2799078477888122,0.38437150462716546,0.34265678061330607,0.34203624138497085,0.2557660254693209,0.2757665659309229,0.3115000728949756,0.28757070435396065
0.3060867631035607,0.3176393885423183,0.31172559565805347,0.3499715987827152,0.28772838678482904,0.3925479429108444,0.35133872704731933,0.3505392044640294,0.26420338675183214,0.2844530202072906,0.3193649445154483,0.29708812838033755
0.3152633039568503,0.32571155094052623,0.32062111183255765,0.3582919666154947,0.29529934885234393,0.40034572501683174,0.35967747621484336,0.35869294936053614,0.2723864238740755,0.29288798608513666,0.32692226312543665,0.3063221771753853
0.3241624581068276,0.33347683430342456,0.32919489210424724,0.36627518554918315,0.30260094559296913,0.4077408972870422,0.36764958415871923,0.36647398949634696,0.28029411740763893,0.3010499913731038,0.33415077748338606,0.31524907729138735
0.3327616478476693,0.34091422653717085,0.3374238592203795,0.37389902798549834,0.30961373038582296,0.41470979157589244,0.37523203229539426,0.3738593312718133,0.2879060297267571,0.30891798596947023,0.3410295075291409,0.32384557525809243
0.34103863280613556,0.3480029822494799,0.3452858244311204,0.38114217166811903,0.3163183435346061,0.42122877176317547,0.382402224855785,0.3808266810421234,0.2952026360637618,0.3164711335781661,0.347537401320204,0.3320888660809991
0.348971687913856,0.3547227701559279,0.35275917311497396,0.3879840136254729,0.32269584750092617,0.4272744727799753,0.38913809351701656,0.3873542072807688,0.3021649413262047,0.3236890477943233,0.3536537256362719,0.33995664031337575
0.35653964223247775,0.3610536989713717,0.359822797611328,0.3944044509743355,0.3287277609880689,0.4328238962782261,0.3954180314915867,0.39342049037941434,0.3087744016128621,0.3305518447502332,0.35935815154793693,0.34742712435640616
0.3637218740240148,0.3669763116261907,0.3664561063121886,0.40038383759216556,0.3343960390560925,0.43785441582447937,0.4012208665425079,0.39900452969298755,0.31501293621413856,0.33704013688633855,0.3646307436943093,0.3544790873070328
0.37049831075080747,0.3724715852662403,0.37263902366225254,0.40590298411675796,0.3396830731216709,0.4423437768999456,0.4065258609830896,0.4040857435397359,0.3208629276121616,0.343135032951184,0.3694519602829306,0.36109184095801083
0.37684942907552277,0.3775209312528509,0.378351990158907,0.41094315794624303,0.34457169095809215,0.44627009690049474,0.41131271167694017,0.408643969201226,0.326307221480783,0.3488181380014152,0.37380265308977534,0.3672452397979095
0.3827562548611547,0.3821061951628293,0.3835759623522307,0.4154860832390881,0.3490451566952589,0.44961186513665646,0.41556155003796547,0.41265946292234346,0.33132912668557835,0.3540715534017799,0.377664067459248,0.37291968101111117
0.3882003631710241,0.38620965678845764,0.3882924128449921,0.41951394091409583,0.353087170819689,0.45234794283361895,0.4192529420303699,0.4161128999112932,0.33591241528384663,0.3588778768251273,0.38101784230418667,0.3780961044778114
0.3931638782687787,0.38981403013749405,0.39248333029265126,0.4230093686504053,0.3566818701745143,0.45445756313122987,0.42236788816865556,0.41898537433959965,0.3400413225246111,0.363220202252408,0.3838460101058603,0.3827559927740192
0.39762947361839296,0.39290246343317187,0.39613121940335844,0.4259554608874914,0.35981382795948197,0.4559203310839963,0.4248878235176224,0.42125839934210674,0.34370054684861834,0.36708211997267415,0.38613099691396946,0.3868813711715568
0.401580371884168,0.3954585391142009,0.39921910093795493,0.428335768825166,0.36246805373095337,0.4567162236610846,0.4267946176923688,0.42291390701697745,0.3468752498883388,0.37044771658308023,0.38785562234664783,0.39045480763805956
0.4050003449307321,0.3974662738347661,0.4017305117099729,0.43013430042357564,0.36462999340190455,0.4568226416515944,0.42807057485829114,0.42393424842569377,0.3495510564679669,0.37330157498888134,0.3890030995904596,0.3934594128369771
0.40787371382304005,0.3989101184645285,0.4036495045856351,0.4313355204032042,0.3662855292419268,0.4561288695658491,0.4286984337310837,0.42430219359305765,0.3517140546034209,0.3756287744034347,0.3895570354004014,0.3958788401275714
0.41018534882637353,0.39977495808862473,0.4049606484838547,0.4319243502448708,0.3674209798772255,0.45461670635735907,0.4286613675767389,0.42399556873390015,0.35335079550234216,0.377414890348199,0.38949998907810107,0.39769728556491796
0.41192066940634126,0.4000461120076669,0.4056490283762364,0.4318861681897312,0.36802310029062063,0.45232677345917444,0.4279091085767306,0.4229410002411493,0.3544482935640966,0.3786459946527345,0.3887665401573351,0.39889948789990637
0.4130656442288786,0.3997007491278669,0.40570024528707477,0.43120163024943226,0.36807908182154714,0.4492989574394151,0.4264012569141461,0.42114592563113923,0.3549940263797735,0.37930865545470327,0.38735027719846576,0.39947072857923815
0.4136067911602476,0.398679522205573,0.4051004162933562,0.42980781495319603,0.36757544948177373,0.4455724100012722,0.4241701413768177,0.4186435813656001,0.3549759347321859,0.37938993719986824,0.38528158145898356,0.3993968317454297
0.41353117726703736,0.39699799712445033,0.4038016088456115,0.427714589254214,0.36645855447848114,0.4411855479830065,0.4212484459487307,0.41546677104487567,0.3543777438265518,0.37887740064209535,0.3825904361031325,0.39866015744408123
0.4128264188161638,0.39468540419817816,0.4017727376808478,0.4249532078069179,0.36472419145247337,0.43617605335795,0.4176684314797827,0.41164786540792525,0.3531424851045374,0.3777288493537684,0.37930642620190874,0.3971940673183011
0.41144273823632127,0.39177059992889773,0.39904648174345847,0.42155453429013445,0.3624000218028086,0.4305808732345047,0.41346193568578377,0.40721880233232105,0.35127908483356113,0.37591082103645235,0.37545873873306146,0.3950049290413449
0.40934894004149514,0.38828206700721285,0.3956553853926318,0.4175490414070867,0.3595133433279306,0.42443621985614327,0.408660373148455,0.4022110868342506,0.34881626674595306,0.3734528546425099,0.3710761625810931,0.3921262697564608
0.40657759763980733,0.38424791431218897,0.39163156248331854,0.4129668108853943,0.3560910902256679,0.4177775706014085,0.40329473531543053,0.3966557910685151,0.3457823641226455,0.3703846836235521,0.3661870885372584,0.38859115850535886
0.40316097067818857,0.37969587691135426,0.3870066963662303,0.40783753347707224,0.35215983309323384,0.41063966798391405,0.39739559050025625,0.3905835543285309,0.3422053197931716,0.36673561680239514,0.3608195092995651,0.3844322062282125
0.399130827510957,0.37465331606069896,0.38181203988784096,0.40219050895853176,0.3477457789272277,0.4030565196523444,0.39099308388239,0.38402458304632736,0.338112686135667,0.3625345383730609,0.3550010194727736,0.379681565763657
0.3945184451998191,0.3691472192046755,0.3760784153903856,0.39605464613058017,0.34287477112363357,0.39506139839045334,0.3841169375072018,0.3770086507925493,0.3335316250768688,0.3578099079007766,0.3487588155683974,0.37437093184879067
0.3893546095138675,0.3632041999761985,0.3698362147118612,0.389458462818421,0.33757228947782064,0.3866868421170662,0.3767964502859742,0.36956509827645534,0.3284889080921159,0.3525897603219748,0.3421196960047028,0.3685315411191737
0.38366961492958407,0.35685049819664455,0.3631153991860261,0.3824300858716536,0.331863450184543,0.3779646538860784,0.3690604979959007,0.3617228333459184,0.3230109162053489,0.3469017059442934,0.33511006110670843,0.3621941721088296
0.3774932646308371,0.3501119798758526,0.35594549964240096,0.37499725116427346,0.3257730058379406,0.3689259018864558,0.36093753328008804,0.3535103309874262,0.3171236399891099,0.34077293044657625,0.3277559131061862,0.355389145250244
0.37085487050888294,0.3430141372121245,0.3483556164062671,0.367187303594672,0.3193253454315382,0.35960091944223493,0.35245558564755464,0.34495563332608,0.3108526795645431,0.33423019487887223,0.32008285614166093,0.34814632287436514
0.3637832531623652,0.3355820885922228,0.3403744192986682,0.3590271970856367,0.31254449435824555,0.35001930501252215,0.3436422614732308,0.33608634962559575,0.30422324460139427,0.32729983566243537,0.31211609625840964,0.34049510921060355
0.35630674189731526,0.3278405785913736,0.33203014763640964,0.3505434945843513,0.3054541144103578,0.340209922191495,0.334524743997959,0.3269296562883037,0.29726015431801117,0.320007764589726,0.3038804414084629,0.3324644503868326
0.3484531747271521,0.3198139779732648,0.3233506102320578,0.341762368062395,0.2980775037795553,0.33020089970840144,0.32512979332849407,0.3175122968551487,0.2899878374813427,0.312379468824409,0.29540030145060364,0.32408283442938834
0.3402498983726822,0.311526283690046,0.3143631853939412,0.3327095985157441,0.29043759705690336,0.32001963142755946,0.3154837464375025,0.3078605820056894,0.28243033240694,0.30444001090135536,0.2866996881503676,0.31537829126306877
0.33172376826209976,0.3030011188823299,0.3050948209261501,0.32341057596476985,0.28255696523285245,0.309692776348358,0.30561251716356325,0.29800038955809893,0.27461128695895587,0.296214028726641,0.2778022151800437,0.30637839271113493
0.32290114853098606,0.2942617328791904,0.29557203412853594,0.3138902994542401,0.2744578156972385,0.29924625860525617,0.29554159621116705,0.28795716446916486,0.2665539585501446,0.28772573557754777,0.2687310981186733,0.2971102524953103
0.31380791202231034,0.28533100119816446,0.28582091179671226,0.3041733770533186,0.2661619922392823,0.2887052674677836,0.28529605115071693,0.277755918834289,0.2582812141418627,0.2789989201025624,0.2595091544520504,0.2876005262357807
0.3044694402864295,0.276231425545251,0.27586711022205374,0.294284025855565,0.2576909750475899,0.2780942573405404,0.2749005264185281,0.2674212318874875,0.24981553024406788,0.2700569463213776,0.2501588035727226,0.27787541145119476
0.29491062358108777,0.2669851338149108,0.2657358551916975,0.2842460719789356,0.2490658807101527,0.267436947763197,0.2643792433168272,0.2569772500013906,0.24117899291531975,0.2609227536248912,0.24070206677998962,0.26796064755866333
0.2851558608714172,0.25761388009006697,0.25545194198854154,0.27408295056578175,0.24030746221434715,0.2567563234104948,0.25375600001375376,0.24644768668724312,0.23239329776277987,0.2516188567752066,0.2311605672799041,0.2578815158737602
0.27522905982993695,0.24813904464210532,0.24503973539124585,0.2638177057828518,0.23143610894693473,0.24607463409224517,0.2430541715433592,0.23585582259490392,0.22347974994221137,0.24216734590563238,0.22155553018527172,0.24766283961052118
0.26515363683655424,0.23858163393087317,0.2345231696742322,0.2534729908212893,0.2224718466940622,0.23541339475332998,0.23229670980560654,0.2252245055128466,0.21445926415797903,0.232589886520683,0.2119077825156506,0.23732898388144513
0.25495251697856347,0.2289622806046807,0.22392574860768336,0.2430710678966348,0.21343433764126138,0.2247933854737019,0.22150614356637147,0.21457615036815872,0.2053523646630496,0.22290771949607807,0.2022377531973524,0.22690385569749272
0.24464813405064736,0.2193012435002999,0.21327054545754479,0.23263380824882424,0.20434288037344972,0.21423465146838425,0.21070457845744173,0.20393273922654243,0.19617918525899156,0.213141661078743,0.19256547306344104,0.2164109039680886
0.23426243055487486,0.20961840764296455,0.20258020298552254,0.22218269214218933,0.195216409874929,0.20375650308746962,0.199913696976516,0.19331582129231334,0.18695946929597462,0.20331210288680768,0.18291057485373274,0.2058731195011181
0.22381685770070364,0.1999332842463713,0.19187693344908477,0.2117388088654584,0.1860734975293868,0.1933775158161224,0.18915475848720703,0.1827465129084026,0.17771256967277063,0.19343901190960858,0.1732922932147975,0.1953130350029302
0.21333237540497832,0.19026501071267904,0.1811825186014614,0.2013228567317557,0.17693235111989572,0.18311553027457678,0.17844859921903794,0.17224549755635502,0.16845744883675356,0.18354193050768677,0.16372946469995783,0.18475272507833634
0.2028294522919317,0.18063235063250827,0.17051830969164392,0.19095514307860137,0.1678108148289135,0.17298765221813753,0.16781563226744503,0.16183302585632936,0.15921267878389833,0.1736399764127896,0.15424052776928882,0.17421380623061009
0.1923280656931835,0.17105369378494217,0.15990522746438535,0.18065558426791184,0.15872636923828318,0.16301025253717985,0.1572758475937758,0.1515289155670996,0.14999644105878193,0.163751842727869,0.14484352278961862,0.16371743686148804
0.1818477016477414,0.1615470561375262,0.14936376216020053,0.17044370568599893,0.14969613132923257,0.15319896725715004,0.14684881202529063,0.1413525515860534,0.14082652675458332,0.1538957979270829,0.13555609203452818,0.1532843172711692
0.17140736555113115,0.15213009175676234,0.13891395647709298,0.16033862911837932,0.140736858661243,0.14356870179880152,0.136553671554009,0.13132287664323342,0.13172032690836716,0.14408969966809473,0.12639548517153418,0.1429346659187893
0.16102579985241997,0.14282033629081842,0.12857505726220675,0.15035881465671846,0.13186503479940365,0.13413371806896734,0.12640919833136993,0.1214582010623771,0.12269463615473233,0.13435127715282366,0.11737867143494922,0.13268773412235574
0.15072147520414358,0.13363519707118632,0.11836552967165982,0.14052207119112978,0.12309686584151991,0.124907630920044,0.11643378875774996,0.11177621049473001,0.11376566070791051,0.12469811964858932,0.1085223350656995,0.12256182578772702
0.1405123798444746,0.12459171754767712,0.10830339415241358,0.13084580611041735,0.11444819776873148,0.11590332389128742,0.10664541801600144,0.10229414997171438,0.10494920832322199,0.11514740330932048,0.0998427667861642,0.1125747669274286
0.13041601071897405,0.11570656735856358,0.09840624064719114,0.121347035827782,0.1059345129615634,0.10713294565702274,0.09706163815488983,0.09302883166336537,0.09626069630458839,0.10571587966015157,0.09135585922547597,0.1027439254524474
0.12044937348058964,0.10699604233058138,0.08869122859447715,0.11204238578082022,0.09757093019992578,0.09860791002664662,0.08769957808909193,0.08399663487833385,0.08771515150453293,0.09641987559742284,0.08307710691951965,0.09308621117223373
0.11062898248965733,0.09847606447892812,0.07917508692851787,0.10294809043152459,0.089372204663114,0.09033889594462505,0.07857594359919674,0.07521350606388405,0.07932721032418087,0.08727529338867922,0.0750216063109335,0.08361807579469999
0.10097086081390005,0.09016218200726367,0.06987411407932127,0.09407999326628395,0.08135272792980845,0.08233584749049562,0.06970701733170515,0.06669495880589509,0.07111111871325906,0.07829761067267171,0.06720405574910779,0.07435551292622143
0.09149054022842905,0.08206956930770955,0.06080417797265706,0.08545354679588268,0.07352652797807478,0.07460797387886561,0.061108658799030685,0.058456073828859964,0.06308073217009591,0.0695018804593563,0.05963875549018644,0.0653140580716355
0.08220306121574225,0.07421302696085046,0.051980716030056405,0.07708381255550187,0.06590726918536415,0.06716374945941297,0.05279630437949865,0.05051149899588607,0.05524951574162223,0.060902731129894805,0.05233960769706564,0.05650878863424219
0.07312297296572588,0.0666069817357325,0.043418735168812034,0.06898546110471802,0.05850825232851188,0.060010913716886626,0.044784967317346366,0.04287544930869539,0.04763054402336954,0.0525143664366544,0.045320116439394625,0.04795432391580442
0.06426433337565364,0.059265486589864025,0.035132811801978726,0.06117277202750433,0.05134241458373979,0.05315647127110531,0.037089237722723205,0.035561706907624134,0.040236501159472096,0.044350565503207554,0.038593387693575364,0.039664825116547224
0.0556407090501863,0.052202220669216426,0.027137091838372495,0.053659633932229236,0.04442232952665373,0.04660669187695829,0.029723282571690844,0.02858362107162238,0.033079680842665014,0.03642468282433224,0.03217212934276269,0.031653995335158676
0.04726517530137248,0.04543048930822209,0.019445290682571406,0.046459544451657876,0.03776020713224549,0.040367110424405626,0.022695739392336572,0.021944536580465905,0.026171986314285915,0.02874964826601157,0.026061226725864434,0.02393507956878855
0.0391503161486487,0.03896021868254386,0.012070693234914408,0.03958361903342267,0.03136789377489149,0.03444252693847766,0.015996146770489893,0.015632277989604124,0.019524930364273663,0.021337967065435046,0.020249720294132835,0.016520864713049845
0.03130822431883862,0.032784102946572496,0.005026153891503326,0.033025500444821033,0.025256811325242847,0.028837006579275036,0.009614965949118377,0.009637106618405599,0.013149635331169154,0.014201719830996261,0.014728759133588202,0.009423679562018188
0.02375050124615345,0.026893754984661487,-0.001680431192849966,0.026775717292296965,0.019428672873803163,0.0235522925757267,0.0035430816189839158,0.003949410552797781,0.007056833102114722,0.007352562542295318,0.00948964393041276,0.0026553948082309914
0.016488257072192192,0.02128139143103933,-0.008058424689541393,0.020825720588010542,0.013874723671878912,0.018579049338129757,-0.0022285050220669897,-0.0014402961983202955,0.0012516554827213119,0.0008016635213386144,0.004523789052166809,-0.0037773786587449827
0.009532110645941477,0.015939317581561824,-0.014117298476285222,0.015167053341145886,0.008587495075178172,0.013905400230526712,-0.0077086762691033674,-0.006541373703078094,-0.004274477132241866,-0.005449063217083628,-0.0001772774522105367,-0.0098847083844094
0.0028916785518100256,0.010859927393712046,-0.019866215218297935,0.00979135055791016,0.003559601295746289,0.009519876406752937,-0.012906197910109279,-0.011363056106633199,-0.009529642945210548,-0.011408335963772376,-0.0046219138524018185,-0.015676791973911485
-0.003434991358368624,0.006035703486600146,-0.02531423903167103,0.004690339241533927,-0.0012162605980343233,0.005411242194163893,-0.01782971922598416,-0.01591445163117173,-0.01452178636729827,-0.017084024554012693,-0.008818364736711356,-0.02116358023984159
-0.009457227199700699,0.001459217140963512,-0.03047033548337032,-0.00014416160772905815,-0.005747310681443936,0.0015684950936343748,-0.022487772990542762,-0.020204542575908067,-0.019258760398981885,-0.022483896801840778,-0.012774761012064652,-0.026354916467780532
-0.015183799121442675,-0.0028768717008329967,-0.03534337159123617,-0.004720240992601262,-0.010040686173425607,-0.002019134220441823,-0.026888775470515033,-0.02424218531708506,-0.02374832663010198,-0.027615618500043012,-0.016499119904008923,-0.031260536416299826
-0.02062335183111278,-0.00697981443479732,-0.039942115823983666,-0.009045895918782122,-0.01410344143658553,-0.005362181900150549,-0.031041026425546403,-0.028036110307973813,-0.02799815523986288,-0.032486753420156625,-0.019999344956712774,-0.03589006831696174
-0.02578440459449099,-0.010856773795310389,-0.04427523810120239,-0.013129031394947695,-0.01794254797719208,-0.008470950924058944,-0.03495270910819729,-0.031594922078873745,-0.032015824996832094,-0.03710476331246935,-0.023283226032966713,-0.04025303287431895
-0.030675351235619232,-0.014514823855125833,-0.04835130979335652,-0.016977460432750918,-0.021564894445177125,-0.011355511097214159,-0.03863189026394381,-0.034927099237112916,-0.03580882325894131,-0.04147700790601991,-0.026358439314182452,-0.044358843265915444
-0.035304460136801046,-0.017960950025369952,-0.052178803721784975,-0.020598904046820764,-0.02497728663413501,-0.014025699051144331,-0.04208652013117701,-0.03804099446704746,-0.03938454597348545,-0.04561074490859703,-0.029232547300393392,-0.04821680514228517
-0.039679874238601434,-0.021202049055541673,-0.055766094158700964,-0.024000991254763328,-0.02818644748132287,-0.016491118243857683,-0.04532443244120346,-0.04094483453006201,-0.04275029767712304,-0.04951313000674051,-0.03191299881025448,-0.05183611662695316
-0.04380961103984759,-0.024244929033512993,-0.05912145682719245,-0.02719125907716131,-0.031199017067660772,-0.018761138959843278,-0.04835334441824472,-0.04364672026456942,-0.045913291495876404,-0.05319121686574065,-0.034407128981041944,-0.05522586831643496
-0.04770156259762809,-0.02709630938552848,-0.06225306890122196,-0.030177152537573974,-0.034021552617731425,-0.02084489831007041,-0.051180856779438115,-0.04615462658601113,-0.04888064914513122,-0.05665195712963838,-0.036722159268653964,-0.05839504328023685
-0.05136349552729345,-0.029762820876205433,-0.06516900900562653,-0.03296602466253706,-0.03666052849978061,-0.022751300231989142,-0.05381445373483583,-0.04847640248685671,-0.05165940092963702,-0.05990220042122515,-0.038865197447609995,-0.06135251706085563
-0.05480305100245587,-0.03225100560853394,-0.06787725721611794,-0.03556513648156339,-0.03912233622571672,-0.024489015489529933,-0.0562615029874056,-0.05061977103660431,-0.05425648574350673,-0.06294869434204327,-0.040843237611051096,-0.0641070576737791
-0.058027744754989244,-0.03456731702387694,-0.07038569505928242,-0.03798165702714197,-0.041413284451110983,-0.026066481673103867,-0.05852925573303016,-0.052592329381780135,-0.056678751070217026,-0.0657980844723853,-0.04266316017073986,-0.06666732560748533
-0.06104496707502937,-0.036718119901970055,-0.07270210551258076,-0.040222663334738736,-0.043539598975197526,-0.0274919031996024,-0.060624846660508054,-0.054401548745939256,-0.05893295298260815,-0.06845691437129493,-0.04433173185706044,-0.06904187382344348
-0.06386198281097347,-0.038709690360921686,-0.07483417300434839,-0.04229514044279624,-0.045507422740873216,-0.02877325131239755,-0.0625552939515525,-0.05605477442966453,-0.06102575614288392,-0.07093162557656593,-0.045855605719018554,-0.07123914775611302
-0.06648593136948078,-0.040548215857212994,-0.07678948341379539,-0.04420598139273357,-0.047322815834697766,-0.029918264081342138,-0.06432749928079241,-0.0575592258105675,-0.06296373380261172,-0.0732285576047431,-0.04724132112424126,-0.07326748531294432
-0.06892382671547233,-0.0422397951856979,-0.0785755240710062,-0.04596198722894657,-0.04899175548689373,-0.03093444640276893,-0.06594824781577192,-0.05892199634328815,-0.06475336780272264,-0.07535394795112162,-0.04849530375897757,-0.07513511687437831
-0.07118255737213053,-0.043790438479603074,-0.0801996837569402,-0.047569866998807754,-0.05052013607134636,-0.031829069999491824,-0.06742420821695039,-0.0601500535594945,-0.06640104857351146,-0.07731393208974745,-0.049623865628097646,-0.07685016529384661
-0.07326888642089983,-0.04520606721052793,-0.08166925270343091,-0.04903623775266608,-0.05191376910560389,-0.032609173420804764,-0.06876193263770254,-0.061250239067883246,-0.06791307513463615,-0.0791145434734171,-0.050633205055093285,-0.07842064589777155
-0.07518945150148641,-0.046492514188444724,-0.08299142259318693,-0.05036762454384743,-0.053178383250877266,-0.033281562042482636,-0.06996785672431825,-0.062229268554179346,-0.06929565509511877,-0.08076171353367764,-0.051529406682078054,-0.07985446648556621
-0.07695076481185804,-0.04765552356169838,-0.08417328655979095,-0.05157046042865417,-0.0543196243120402,-0.033852808066780406,-0.07104829961600292,-0.0630937317811359,-0.07055490465334474,-0.08226127168082689,-0.05231844146978672,-0.08115942732963405
-0.07855921310824442,-0.04870075081700657,-0.08522183918770053,-0.05265108646636535,-0.05534305523762939,-0.03432925052243394,-0.07200946394487691,-0.06385009258853475,-0.07169684859706314,-0.0836189453039132,-0.0530061666975758,-0.0823432211753696
-0.08002105770513684,-0.049633762779459766,-0.08614397651224788,-0.05361575171923662,-0.05625415611984404,-0.03471699526465934,-0.07285743583597627,-0.06450468889318588,-0.07272742030338647,-0.08484035977073565,-0.0535983259634233,-0.08341343324115778
-0.08134243447528823,-0.050460037612521304,-0.08694649601963941,-0.05447061325250039,-0.05705832419454659,-0.03502191497515358,-0.07359818490725199,-0.06506373268892766,-0.07365246173879125,-0.0859310384278437,-0.05410054918392873,-0.08437754121837418
-0.08252935384971356,-0.05118496481802714,-0.08763609664695655,-0.05522173613436559,-0.05776087384126188,-0.03524964916209363,-0.07423756426957055,-0.0655333100466268,-0.07447772345911724,-0.08689640260053781,-0.05451835259431331,-0.08524291527138537
-0.08358770081768925,-0.05181384523618592,-0.08821937878215505,-0.055875093436017875,-0.058367036583177885,-0.035405604160137556,-0.0747813105267137,-0.06591938111417847,-0.07520886460956791,-0.0877417715928686,-0.054857138748419514,-0.08601681803754811
-0.08452323492675383,-0.052351891045579295,-0.08870284426406538,-0.056436566231619696,-0.0588819610871452,-0.03549495313042357,-0.07523504377537842,-0.06622778011650608,-0.07585145292471042,-0.08847236268763777,-0.05512219651871162,-0.0867064046272102
-0.085341590282707,-0.05280422576316149,-0.08909289638239239,-0.05691194359830969,-0.05931071316367727,-0.035522636060570476,-0.07560426760517695,-0.06646421535556135,-0.07641096472847533,-0.08909329114639744,-0.055318701096275215,-0.0873187226237102
-0.08604827554961074,-0.053175884244259654,-0.08939583987771578,-0.05730692261620365,-0.0596582757669504,-0.03549335976467772,-0.07589436909863706,-0.0666342692103247,-0.07689278493415702,-0.0896095702094501,-0.05545171399081773,-0.08786071208337681
-0.08664867394978851,-0.05347181268257335,-0.0896178809414896,-0.05762710836839385,-0.05992954899480373,-0.035411597883325124,-0.07611061883120149,-0.0667433981368045,-0.07730220704441333,-0.09002611109584936,-0.055526183030667836,-0.08833920553552992
-0.0871480432646895,-0.053696868610889716,-0.0897651272151467,-0.05787801394051308,-0.06012935008872877,-0.035281590884025105,-0.07625817087138528,-0.06679693266789427,-0.07764443315075871,-0.09034772300468358,-0.05554694236256367,-0.08876092797981268
-0.08755162709899929,-0.053855912896285336,-0.08984347239183275,-0.05806500428435174,-0.06026241210583724,-0.03510740427453311,-0.07634208298439825,-0.06680005893867785,-0.07792450861599969,-0.09057927852677229,-0.05551868511926162,-0.08913215339181435
-0.08786496251546598,-0.05395406409823158,-0.08985827715103084,-0.05819314100602445,-0.06033338024697608,-0.03489308955718928,-0.07636737249326545,-0.06675776760563194,-0.07814714147729945,-0.09072617099248667,-0.05544588784804026,-0.08945775499334543
-0.08809356579271363,-0.053996430734811834,-0.08981470161925438,-0.05826736453329076,-0.06034683160732592,-0.03464250974927001,-0.07633898008294267,-0.06667489202237566,-0.07831687239041867,-0.0907938420722293,-0.05533290269701121,-0.0897421806065938
-0.08824285531554336,-0.05398801966219168,-0.08971780838461865,-0.058292616206185456,-0.06030733244151983,-0.03435926358278273,-0.07626182927636824,-0.06655607173352202,-0.07843806872294615,-0.09078764872698923,-0.05518402915182158,-0.08998970911153142
-0.08831813180936739,-0.05393374540229777,-0.08957256177164616,-0.058273771614807776,-0.06021938649247848,-0.034046707827074155,-0.07614075515460382,-0.06640580118275298,-0.07851498330124423,-0.09071285078713924,-0.05500347025472245,-0.09020449451118524
-0.08832457055832867,-0.05383843381520769,-0.08938382755575128,-0.05821561435381749,-0.06008741464801246,-0.033707966077441934,-0.07598047629331921,-0.06622844888962197,-0.07855177753964343,-0.09057460606209768,-0.05479531536762601,-0.09039058328052609
-0.08826722140483233,-0.053706822099372144,-0.08915637296322307,-0.0581228360208506,-0.059915754939595514,-0.033345928755664035,-0.0757855947610995,-0.06602825745071099,-0.07855252144183783,-0.09037797034003361,-0.054563540171066315,-0.09055191436751578
-0.088151008749545,-0.053543558791614265,-0.08889486667122494,-0.05800003621652008,-0.059708662542363886,-0.032963253109998834,-0.07556059611944534,-0.06580934353963001,-0.07852119360088528,-0.09012789738786685,-0.05431200666419882,-0.09069231919310647
-0.08798073155139503,-0.05335320376713003,-0.08860387880779515,-0.05785172254441513,-0.05947030977511665,-0.03256236321518548,-0.0753098494227722,-0.06557569790701785,-0.07846168119920698,-0.0898292389512675,-0.054044463164800306,-0.09081552165124122
-0.08776106332757262,-0.053140228239488385,-0.08828788095184642,-0.05768231061110204,-0.05920478610031599,-0.03214544997244357,-0.07503760721841132,-0.06533118538054122,-0.07837778000858811,-0.08948674475465655,-0.0537645443092694,-0.09092513810885368
-0.08749655215352982,-0.0529090147606308,-0.08795124613316595,-0.057496124026123425,-0.05891609812408645,-0.03171447110947284,-0.07474466064116474,-0.06507593061717686,-0.0782731943901771,-0.0891050625012056,-0.05347237276690725,-0.09102467740586812
-0.08719162066298003,-0.05265901869524751,-0.08759824883241557,-0.05729368794072308,-0.05860816959621584,-0.03127115118045426,-0.07442234590336909,-0.06480072005296206,-0.07815153729448612,-0.08868873787283667,-0.053159568282067464,-0.0911175408551995
-0.0868505660478988,-0.05238414594623991,-0.08723306498113181,-0.05706764984332225,-0.0582848160042515,-0.030816981566048677,-0.0740723583399008,-0.06450731879683613,-0.07801633026139099,-0.08824221453022263,-0.052827735219773075,-0.09120702224275372
-0.08647756005852317,-0.052086605340134734,-0.0868567544543249,-0.05681965115015464,-0.057942219785333274,-0.030353220473397818,-0.07369734214447428,-0.06419838811259325,-0.07787100342013102,-0.08776983411278691,-0.05247925272683883,-0.09129630782742675
-0.08607664900335206,-0.051768723857179455,-0.08646108019011423,-0.056551854904932704,-0.057577046483624196,-0.029880892936123785,-0.07329979748837684,-0.06387643254566207,-0.07771756644084767,-0.08727583623870344,-0.05211635901547304,-0.09138762015217115
-0.0856517537491459,-0.051432716248330686,-0.08604718841341585,-0.05626630752691631,-0.057191388145785914,-0.02939723582026418,-0.07288208052046972,-0.06354379992310515,-0.07754856539315982,-0.08676337417388955,-0.05174115136327764,-0.09147194065804443
-0.08520666972092726,-0.05108068503525451,-0.08561718507255817,-0.05596493881091249,-0.056787232617132505,-0.028896381535244084,-0.0724464033671874,-0.063202681353619,-0.07736387596157275,-0.08622534776915824,-0.051355586113248454,-0.09154724209624596
-0.08474506690198007,-0.05071462051032591,-0.08517305290476314,-0.05564956192727563,-0.05636646354163091,-0.028381796066912636,-0.07199483413253793,-0.06285511122753451,-0.07716537493041692,-0.0856618457799853,-0.05096147867377455,-0.09161492968940313
-0.08426540582831343,-0.05033640073662935,-0.08471665143614697,-0.05532187342190748,-0.05593086036190054,-0.027857044439768004,-0.07152929689810282,-0.0625029672168166,-0.07695482632410873,-0.08507577240302006,-0.05056050351863898,-0.09167627613765635
-0.0837592342506439,-0.04994779154795834,-0.08424971698171929,-0.05498345321625683,-0.05548209831921377,-0.027325422416112473,-0.07105157172303679,-0.062147970275064225,-0.07673388140715055,-0.08446990654640632,-0.05015419418701818,-0.09173242161865905
-0.08322938786968327,-0.04955044654881566,-0.08377386264538435,-0.05463576460732,-0.05502174845349509,-0.026789956496051825,-0.07056329464406837,-0.06179168463751045,-0.07650407868413107,-0.08384690182978258,-0.04974394328348228,-0.09178437378757762
-0.08267903580635406,-0.049145907114413336,-0.08329057831993945,-0.05428015426764064,-0.05455127760332215,-0.02625340391749566,-0.07006595767549936,-0.06143551782102254,-0.07626684389972448,-0.08320928658428177,-0.049331002477995205,-0.09183300777709137
-0.08211118820456238,-0.04873560239067254,-0.08280123068707652,-0.053917852245309414,-0.05407204840592492,-0.025718252656157212,-0.06956090880920493,-0.06108072062410178,-0.07602349003869124,-0.08255946385253164,-0.0489164825059143,-0.09187906619739264
-0.08152869623119745,-0.048320849294223624,-0.0823070632173808,-0.05354997196396446,-0.053585319297186164,-0.025186721425553636,-0.06904935201463404,-0.06072838712688368,-0.07577521732587793,-0.0818997113886544,-0.048501353167990625,-0.09192315913618676
-0.08093425207613188,-0.047902852512406446,-0.08180919617033197,-0.053177510222791234,-0.053092244511641365,-0.024660759677005723,-0.06853234723880866,-0.06037945469113768,-0.07552311322621687,-0.08123218165826673,-0.04808644333036896,-0.09196576415869197
-0.08033038895222172,-0.04748270450326968,-0.08130862659430294,-0.05280134719652241,-0.05259387408247844,-0.024142047599637766,-0.06801081040632466,-0.06003470396026747,-0.07526815244472655,-0.08055890183848012,-0.047672440924587514,-0.09200722630763972
-0.07971948109530612,-0.047061385495571595,-0.08080622832656123,-0.05242224643543794,-0.05209115384153801,-0.023631996120378303,-0.06748551341935097,-0.05969475885931072,-0.07501119692651138,-0.07988177381790051,-0.047259892947578465,-0.09204775810327388
-0.0791037437642076,-0.046639763488779365,-0.08030275199326757,-0.05204085486536506,-0.05158492541931349,-0.023131746903959194,-0.06695708415763033,-0.0593600865949394,-0.07475299585676189,-0.07920257419662842,-0.04684920546166726,-0.09208743954335197
-0.0784852332407322,-0.04621859425306946,-0.07979882500947723,-0.051657702787678374,-0.05107592624495082,-0.02264217235291605,-0.06642600647847864,-0.05903099765545938,-0.07449418566075447,-0.07852295428625912,-0.0464406435945731,-0.09212621810314411
-0.07786584682966916,-0.04579852132932769,-0.0792949515791388,-0.051273203879299664,-0.05056478954624869,-0.022163875607588528,-0.0658926202167855,-0.058707645810810706,-0.07423529000385151,-0.07784444010988223,-0.04603433153940901,-0.09216390873543338
-0.07724732285879089,-0.04538007602914899,-0.0787915126950952,-0.050887655192698084,-0.05005204434965815,-0.02169719054611969,-0.06535712118501377,-0.05839002811256761,-0.07397671979150143,-0.07716843240208218,-0.04563025255468133,-0.09220019387051599
-0.07663124067885328,-0.04496367743483747,-0.07828876613908299,-0.05050123715589001,-0.04953811548028325,-0.021242181784456624,-0.06481956117319992,-0.058077984893938325,-0.07371877316923878,-0.07649620660893786,-0.04522824896429042,-0.09223462341620103
-0.07601902066359556,-0.04454963239940664,-0.07778684648173262,-0.05011401357243927,-0.04902332356188051,-0.020798644676349835,-0.06427984794895382,-0.0577711997697653,-0.07346163552268402,-0.07582891288802276,-0.04482802215752979,-0.09226661475781062
-0.07541192420974017,-0.044138135546578965,-0.07728576508256864,-0.04972593162145663,-0.04850788501685916,-0.020366105313353675,-0.06373774525745873,-0.05746919963652505,-0.07320537947754352,-0.07516757610840502,-0.04442913258908718,-0.09229545275817974
-0.07481105373699296,-0.043729269270786256,-0.07678541009000933,-0.04933682185760067,-0.047991912066280965,-0.01994382052482644,-0.06319287282147155,-0.05717135467232802,-0.07294996489960966,-0.07451309585064729,-0.04403099977904335,-0.0923202897576566
-0.07421735268804304,-0.043323003737169685,-0.07628554644136679,-0.048946398211076714,-0.04747541272986043,-0.01953077787792988,-0.06264470634132237,-0.05687687833691916,-0.07269523889476098,-0.0738662464068069,-0.04363290231287308,-0.09234014557410213
-0.07363160552856295,-0.04291919688157934,-0.07578581586284706,-0.04855425798763773,-0.04695829082596478,-0.01912569567762978,-0.06209257749491496,-0.05658482737167705,-0.07244093580896198,-0.07322767678043561,-0.04323397784144484,-0.09235390750289031
-0.07305443774720834,-0.04251759441057474,-0.07528573686955033,-0.0481598818685838,-0.04644034597161365,-0.01872702296669527,-0.061535673937726576,-0.05629410179961476,-0.07218667722826308,-0.07259791068657998,-0.04283322308102031,-0.09236033031690814
-0.07248631585561839,-0.04211782980142458,-0.07478470476547032,-0.04776263391076245,-0.04592127358247957,-0.01833293952569946,-0.0609730393028077,-0.0560034449253792,-0.07193197197880058,-0.07197734655178102,-0.04242949381325525,-0.09235803626655562
-0.07192754738841547,-0.04171942430210672,-0.07428199164349489,-0.04736176154656826,-0.04540066487288759,-0.01794135587301921,-0.06040357320078243,-0.05571144333525167,-0.07167621612679706,-0.07136625751407433,-0.042021504885198804,-0.09234551507974557
-0.0713782809032053,-0.04132178693130833,-0.07377674638540554,-0.0469563955839434,-0.0448780068558154,-0.017549913264835144,-0.05982603121984837,-0.05541652689714729,-0.07141869297856092,-0.07076479142299007,-0.041607830209293865,-0.09232112396190396
-0.070838505980577,-0.040924214478425675,-0.07326799466187797,-0.046545550206377004,-0.04435268234289333,-0.017155983695131386,-0.05923902492577645,-0.05511696876061547,-0.07115857308048672,-0.07017297083955329,-0.04118690276337694,-0.0922830875959697
-0.07030805322410291,-0.04052589150356442,-0.0727546389324816,-0.046128122972905757,-0.043823969944404545,-0.016756669895695984,-0.05864102186191108,-0.05481088535683963,-0.07089491421905467,-0.06959069303628314,-0.04075701459067809,-0.09222949814239462
-0.06978659426033869,-0.040125890337539126,-0.07223545844567965,-0.04570289481811365,-0.04329104406928451,-0.01634880533612081,-0.058030345549170304,-0.05449623639863725,-0.07062666142083143,-0.06901772999719369,-0.040316316799821124,-0.09215831523914345
-0.06927364173882339,-0.03972317108187396,-0.07170910923882946,-0.04526853005213153,-0.04275297492512162,-0.015928954223801237,-0.05740517548604524,-0.05417082488046019,-0.07035264695246943,-0.06845372841779354,-0.03986281956482346,-0.0920673660016942
-0.0687685493320793,-0.03931658160880198,-0.07117412413818208,-0.04482357636063818,-0.04220872851815685,-0.015493411503936511,-0.056763547148600976,-0.05383229707839418,-0.07007159032070703,-0.06789820970508584,-0.03939439212509603,-0.09195434502303752
-0.06827051173561216,-0.03890485756126569,-0.07062891275888247,-0.04436646480485914,-0.041657166653283735,-0.015038202859529573,-0.0561033519904757,-0.05347814255015901,-0.0697820982723687,-0.06735056997756834,-0.03890876278544356,-0.0918168143736772
-0.06777856466791092,-0.038486622352916645,-0.07007176150496967,-0.043895509821567466,-0.04109704693404856,-0.014559084711387157,-0.05542233744288114,-0.053105694135108725,-0.06948266479436502,-0.06681008006523342,-0.03840351891606436,-0.09165220360162996
-0.06729158487044769,-0.038060387168115765,-0.06950083356937642,-0.043408909223083554,-0.04052702276265019,-0.01405154421811972,-0.05471810691460245,-0.052712127954231455,-0.06917167111369223,-0.06627588550956792,-0.03787610695255031,-0.0914578097324256
-0.06680829010767836,-0.03762455096193304,-0.06891416893392933,-0.04290474419727497,-0.039945643339940155,-0.013510799276141313,-0.05398811979199831,-0.052294463410149296,-0.06884738569743289,-0.06574700656355346,-0.037323832395887026,-0.0912307972691067
-0.06632721601636189,-0.03717738927071194,-0.06830969617204001,-0.04238098155938883,-0.039351355337514556,-0.012931780547729673,-0.05322969389271386,-0.05184956000369506,-0.06850797394106532,-0.06522231006895453,-0.036743863116203763,-0.09096824736053083
-0.06584626498754456,-0.036716836172852846,-0.0676854624379167,-0.04183551763163375,-0.038742535480376754,-0.012308781256793789,-0.05244005327914158,-0.051374055301187244,-0.06815168695648766,-0.06469996145246003,-0.03613329373020304,-0.09066811590311927
-0.06536273640808976,-0.03624049890547459,-0.06703961804881178,-0.04126617530163041,-0.03811748836269835,-0.011635480665462354,-0.05161632505315771,-0.050864369092908174,-0.06777684891626426,-0.0641774614621349,-0.03548914128549985,-0.09032916931273562
-0.06487375359370302,-0.035745864214280935,-0.06637019882581527,-0.040670662495268774,-0.03747441561195295,-0.01090527550343568,-0.0507554941059995,-0.050316762100178734,-0.067381678386759,-0.06365216479211777,-0.03480828433454634,-0.08995007778794938
-0.06437628088307291,-0.03523030661568503,-0.06567511737891116,-0.04004657051398588,-0.036811414654267086,-0.010111293238218128,-0.04985440130647786,-0.04972733832595373,-0.06696428117442166,-0.06312130084804227,-0.034087460495188314,-0.0895293790048428
-0.06386712363787166,-0.03469108839680899,-0.06495216310697724,-0.03939137403476644,-0.03612647871441969,-0.009246392075117748,-0.048909743500977015,-0.04909204505482219,-0.06652265032578848,-0.06258197374703629,-0.033323266450665356,-0.0890654781170115
-0.06334292824275471,-0.03412535961548421,-0.06419900219778525,-0.03870243111014197,-0.03541749681584245,-0.0083031609572461,-0.047918073513454715,-0.04840667285300703,-0.06605466612748125,-0.062031162317722426,-0.03251215794961042,-0.08855664775556367
-0.06280018210536066,-0.033530158100251346,-0.06341317762800067,-0.037976983168191515,-0.03468225378061966,-0.007278231811514058,-0.04688356797027777,-0.04767151934756981,-0.06555809610620783,-0.0614657201002177,-0.03165619988263954,-0.08800102802912083
-0.06223521365631162,-0.03291296042155403,-0.06259210916318311,-0.037219288175431485,-0.03391843022948829,-0.006190486295558086,-0.0458303873155155,-0.04691399063436307,-0.06503059502876224,-0.060882375346134054,-0.030779728252063623,-0.0873966265238173
-0.061644192349213055,-0.0322892051630312,-0.06173309335778587,-0.036450007403728536,-0.033123602581837996,-0.005011819174882704,-0.04473589257861733,-0.046113560770853414,-0.06446970490202451,-0.06027773101857762,-0.02986229257385875,-0.08674131830330042
-0.06102312866065344,-0.031638530115371516,-0.0608333035551562,-0.035650800487674765,-0.03229754799291214,-0.003705734865567325,-0.043572551486516065,-0.04523974128633139,-0.06387285497296047,-0.059648264792149554,-0.028876747641400698,-0.0860328459087304
-0.060367874090204894,-0.030939416020728323,-0.0599014174686775,-0.034799500323826865,-0.03146201737798339,-0.0022378317576853103,-0.042313921392717085,-0.04426339304922281,-0.06323736172862209,-0.05899032905294521,-0.027797109554420264,-0.0852688193587806
-0.059674121160422776,-0.030170971811963303,-0.058956584307819374,-0.03387458678021079,-0.03060658480366885,-0.0005758022153045091,-0.04093464927729811,-0.043156726267089066,-0.06256042889614731,-0.05830015089855477,-0.026598555719002475,-0.0844467161496372
-0.058937403416845675,-0.029312934612646238,-0.057976429789356076,-0.03285518669632114,-0.029710867558211687,0.001310567423513156,-0.03941047174690946,-0.04189330048662668,-0.0618597189297042,-0.0575738321380629,-0.025257424847587508,-0.08358122633637653
-0.058153095427995544,-0.028345669737055035,-0.05693703791598318,-0.031721073883121724,-0.028755111342724148,0.0034493968467115403,-0.037718215034773905,-0.04044802459366784,-0.06113912218120924,-0.056811837730339126,-0.023751216958969902,-0.08268769080392428
-0.05731641278537764,-0.027250170690175796,-0.05581527517838805,-0.030452669123045156,-0.027720190271187804,0.005866711768240223,-0.03583579500068654,-0.03879715681317993,-0.06037559689193232,-0.05603962294054844,-0.022058593378299133,-0.08174035943225726
-0.05642241210348073,-0.026008059167702883,-0.05458879055524978,-0.02903104016999303,-0.026587606870453213,0.008586443928054606,-0.033742217131015266,-0.03691830470926591,-0.05954693227134023,-0.055239575790777554,-0.020159376737079158,-0.08071367527512169
-0.055465991019776534,-0.024601585056038773,-0.05323601551323923,-0.027437901749335886,-0.025339492080240188,0.011630431092115787,-0.03141757653870019,-0.03479042518516394,-0.05863174851540602,-0.0543853279045486,-0.018034550973168653,-0.07958307191213716
-0.05445046416969531,-0.02301362643229394,-0.051736164007018824,-0.025655615557913326,-0.023958605253137727,0.01501841705239061,-0.028843057963253992,-0.03239382448324773,-0.05760949680660973,-0.05345156223017243,-0.015666261330781216,-0.07832497344879631
-0.05340443748255661,-0.021227689564287146,-0.05006923247924293,-0.02366719026403386,-0.02242833415460385,0.018768051626851794,-0.026000935770761877,-0.029710158185026262,-0.05646045931393758,-0.05241401304074874,-0.01303781436048482,-0.07691679451646473
-0.05230084959986523,-0.019227908910545235,-0.04821599986055753,-0.02145628150747465,-0.02073269496296581,0.02289489065947792,-0.022874573953881424,-0.026722431211143934,-0.055165749192882765,-0.051249465934166204,-0.010133677919202475,-0.07533694027238116
-0.05110641522961443,-0.01699904712030336,-0.04615802756960033,-0.01900719189948228,-0.01885633226941996,0.027412396020253114,-0.01944842613184275,-0.023414997821380693,-0.053707310585444784,-0.0499357578331021,-0.006939481170211467,-0.07356480639965746
-0.04978956640873107,-0.014526495033504698,-0.0438776595130007,-0.01630487102277206,-0.016784519078032065,0.032331935605167346,-0.015708035550448474,-0.01977356161465176,-0.05206791862012996,-0.0484517769850226,-0.003442014583144051,-0.07158077910727845
-0.04832045250307501,-0.011796271680800616,-0.04135802208538,-0.013334915431528243,-0.014503156805736573,0.0376627833362164,-0.01164003508207373,-0.01578517552900753,-0.05023117941195103,-0.04677746296218281,0.0003707700660126895,-0.06936623513010205
-0.046670940207439414,-0.008795024283550681,-0.03858302416935109,-0.010083568651404157,-0.011998775282337526,0.04341211916140188,-0.00723214722566603,-0.011438241841634205,-0.04818153006242732,-0.04489380666162666,0.004509759694917461,-0.06690354172885951
-0.044814613545550434,-0.005510028253822375,-0.035537357135518415,-0.006537721179521912,-0.009258532750507904,0.04958502905473095,-0.0024731841067454456,-0.006722512168853232,-0.045904238659584845,-0.042782850305186686,0.00898467991487377,-0.06417605669015468
-0.04272677387006771,-0.0019291871943918116,-0.03220649484247858,-0.002684910484472568,-0.006270215865789782,0.05618450501621691,0.0026469525225954974,-0.0016290874661212546,-0.04338540427795611,-0.04042768743948443,0.013804095030830682,-0.06116812832646494
-0.04038443986258372,0.001958967101257205,-0.028576693636819597,0.0014866789936835733,-0.003022239696594671,0.06321144507187856,0.00813727128369195,0.0038495819719693543,-0.04061195697858025,-0.03781246293593036,0.01897540804138263,-0.057865095476140445
-0.037766347533624435,0.0061652746489324495,-0.02463499235312128,0.005988215843417599,0.0004963522757970714,0.0706646532737404,0.01400569117130609,0.00971969651169115,-0.037571657809003074,-0.034922372990723496,0.024504860638769256,-0.054253287503404565
-0.03485295022264887,0.010699947273733669,-0.020369212313955283,0.010830221681731476,0.004295888157235699,0.07854083969983301,0.020259041553628235,0.015986107180181126,-0.034253098803276864,-0.031743665124851855,0.030397533208875352,-0.050320024298353784
-0.03162641859804914,0.015572568610052474,-0.015767957329884702,0.016022571154158328,0.008386067640702486,0.0868346204541925,0.026903062172275918,0.022652315665440896,-0.03064570298196044,-0.02826363818409229,0.036657344831231384,-0.04605361627695746
-0.028070640657150713,0.0207920941015719,-0.010820613699464661,0.02157449193476192,0.012775962006309496,0.09553851766686072,0.03394240314229409,0.029720474316336665,-0.026739724352119496,-0.024470642339010407,0.043287053279012826,-0.04144336438105812
-0.024171221726212156,0.02636685100126761,-0.0055173502092418555,0.027494564726137823,0.017474014121299567,0.10464295949388568,0.041380624952155394,0.03719138614259931,-0.022526247907325943,-0.020354079084960713,0.050288255019040606,-0.036479560078371706
-0.019915484460425275,0.032304538371406476,0.00015088186624513902,0.033790723259411896,0.02248803844004644,0.11413628011732065,0.04922019846376001,0.04506450481482414,-0.017997189627658484,-0.015904401242086415,0.057661385211780755,-0.031153485362486612
-0.015292468843915032,0.038612227083547404,0.006192348764466217,0.0404702542942414,0.027825221004054816,0.1240047197452248,0.05746250491243538,0.053337934664471426,-0.013145296479702456,-0.011113112955319786,0.065405717711345,-0.025457412752864762
-0.01029293218973946,0.04529635981854113,0.012614534234899456,0.04753979761881479,0.033492119441960004,0.13425246903166227,0.06610783590693671,0.06200843068386573,-0.007964146416549637,-0.005972769694381535,0.07351936506549003,-0.019384605294841
-0.00490934913989038,0.05236275106652991,0.01942413953903075,0.0550053460498508,0.03949466296952787,0.14491205507901267,0.07515539342944644,0.07107139852619573,-0.0024481483777988333,-0.00047697825378196183,0.08199927851561745,-0.012929316559623613
0.0008640883347084893,0.05981658712694899,0.026627083450355606,0.0628722454326005,0.045838152389656404,0.15588107543024285,0.08460328983557541,0.08052089450551639,0.003407457710445516,0.005379603247181063,0.09084124799677563,-0.006086790644292882
0.007031470934198931,0.06766242610852422,0.034228502254376326,0.07114519464084525,0.05252726009237304,0.1670475550808962,0.09446275934474278,0.09037513864479398,0.00960660093557157,0.0116012653644198,0.10006134912772902,0.0011467378281965102
0.013595172029790237,0.07590419792927376,0.042232749748604304,0.07982824557689708,0.059566030054836676,0.17830455303800874,0.10481268687995099,0.10069280217117756,0.016152379398461127,0.018191247329058007,0.10971940258085601,0.008774043709017696
0.0205558476637582,0.08459114682195892,0.050643397242558785,0.0889541257629364,0.06695787784133707,0.1895501623201083,0.11557144648531295,0.11137251312773114,0.02304706021348937,0.025151737047430678,0.11972505078493349,0.016796911323470432
0.02791243654944574,0.09376216357211095,0.05946323355776769,0.09859213635450982,0.07470559060329447,0.2006875099572144,0.1266280168778965,0.12230100829416395,0.0302920795085249,0.03248387110108375,0.1299739758180495,0.025216134470981255
0.03566216007126219,0.10332377582093842,0.0686942650277667,0.10865431415285812,0.08281223871967976,0.2116247569908384,0.13787608245584032,0.1333701940350094,0.03788804242492962,0.040187734746774666,0.1403664951690351,0.03403151642510376
0.04380052228468398,0.11318296150753894,0.07835601966298002,0.1190426199932531,0.09135177085208326,0.22227509847398333,0.14921403329835362,0.14447714629962355,0.045834723117559206,0.04826236191647177,0.1508075617374632,0.04324186993351865
0.05232130991625433,0.12325030302304132,0.08853340351469492,0.1296627642081631,0.10030461489335483,0.2325567634711446,0.16054496516571612,0.15552411062218652,0.05413106475476235,0.056705735217354745,0.16120676383365004,0.05284501721803314
0.061216592363583164,0.1334399872106062,0.09914600835863878,0.14042420662725386,0.10958041538960797,0.24239301505830863,0.1717766794992781,0.1664185021217015,0.06281607276357959,0.06551478593181438,0.171478325178654,0.06286922409771066
0.07047672169534738,0.14366980536542515,0.1100888430662177,0.15124015657738824,0.11909228436735117,0.2517121503229543,0.18282168342146077,0.17707290550199564,0.07192514195284096,0.07469078322938427,0.1815411049042763,0.07337931244808173
0.08009033265129045,0.1538611532347218,0.12126106165738414,0.16202757288262631,0.12875680133348785,0.2604475003640521,0.1935971897357552,0.1874050750517194,0.08136565622736355,0.0843090555872594,0.19131859755306008,0.08427481942493484
0.09004434264222298,0.16393903101775056,0.13256596330063733,0.1727071638642252,0.13849401327531558,0.2685374302920642,0.20402511692672376,0.19733793464434668,0.0910450315184258,0.09431553722991388,0.20073893307829177,0.09544577656309948
0.10032395175002203,0.17383204336579813,0.1439109923130221,0.18320338734063935,0.14822743466052699,0.27592533922894497,0.21403208915999908,0.20679957773817495,0.10087457876339134,0.10460924205405994,0.20973487684399997,0.10678680304868492
0.11093124282540213,0.18347239938015705,0.1552077381624141,0.1934444506274077,0.15788404743769394,0.28255966030373947,0.22354943628371907,0.21572326737606642,0.11076950390736791,0.1150935891249979,0.21824382962475802,0.11819710572851685
0.12191845476960558,0.19279583303519685,0.16637202520943556,0.20336230611646683,0.16739432008199343,0.2883936877097448,0.2325132502155063,0.22404742600284255,0.12064897311963199,0.12567616019228947,0.22620781983022023,0.1295808499304836
0.13318869518122714,0.20174139207544375,0.1773241507762169,0.2128926395488836,0.17669225812000552,0.29338511791904875,0.24086453452672385,0.2317156084527141,0.1304362858007753,0.1362680564235586,0.2335734828782502,0.14084814318153416
0.14462843913406262,0.2102516623452116,0.18798863216137268,0.22197488247689817,0.18571535043926998,0.297496537213319,0.24854904548597745,0.23867653065433087,0.14005869073574806,0.1467845819747098,0.2402920831141743,0.151913989854563
0.15612980991777703,0.21827282911474716,0.19829413714354566,0.23055221996360387,0.1944045660290883,0.30069556113224155,0.25551726031449007,0.24488405950193784,0.14944731525763333,0.15714544610855846,0.24631953873806486,0.16269796598547334
0.16759060177677262,0.22575465793881241,0.2081735042858497,0.2385716058685834,0.20270440204781162,0.3029548163703678,0.26172443534635464,0.2502971419457891,0.15853710256908277,0.16727476293644403,0.25161649204698777,0.17312415838335518
0.17891425981905187,0.23265051156926095,0.2175637249956913,0.24598374934214415,0.2105628413525428,0.30425195677232364,0.2671305546405042,0.2548798676449689,0.16726686712254174,0.1771010516465303,0.2561482473718141,0.18312121843025134
0.190009871399437,0.2389173572085846,0.22640593583050164,0.2527431090329034,0.21793133428428052,0.3045696701929076,0.27170030794117905,0.25860149583822,0.17557931837197585,0.18655723660171994,0.2598847444592733,0.1926223851550502
0.2007921661179144,0.24451576651130574,0.23464541849625856,0.2588078930866766,0.2247647986644182,0.3038956784984106,0.2754030906736894,0.2614364553491087,0.18342106077743528,0.19558064733967376,0.26280055846683775,0.20156548523792053
0.21118151581963476,0.2494099155839788,0.2422315998474863,0.26414005914647515,0.231021619794744,0.3022227375666154,0.27821300394441667,0.2633643445860247,0.1907425938050554,0.2041130185728098,0.26487489996272207,0.20989293301031162
0.2211039345949124,0.2535675849851897,0.24911805188725503,0.2687053143525086,0.23666365045744078,0.29954863728679615,0.2801088545408124,0.2643699315421816,0.19749831192705605,0.21210049018830449,0.2660916149258833,0.21755173045495246
0.23049107877922612,0.25696015972555547,0.2552624917671816,0.2724731153421832,0.24165621091508604,0.295876201559719,0.281074154931399,0.26444315379561617,0.2036465046217425,0.21949360724809183,0.26643918474602163,0.22449346720585298
0.23928024695321864,0.2595626292677248,0.26062678178742893,0.2754166682501025,0.24596808891065208,0.2912132882976423,0.2810971232657693,0.2635791185091887,0.2091493563735047,0.2262473199888632,0.26591072622357936,0.2306743205483029
0.24741437994269644,0.2613535875263776,0.26517692939670645,0.27751292870806693,0.2495715396675058,0.2855699281612099,0.2801706833745867,0.2617781024305828,0.2139729466728174,0.23232098382206837,0.2645039915697412,0.2360550554188727
0.25484206081863037,0.26231523286822606,0.26888308719226955,0.27874260184507466,0.25244228588940915,0.2790004211525525,0.27829246476958563,0.25904555189230644,0.21808725001624038,0.23767835933391462,0.26222136840643484,0.24060102440541264
0.26151751489715513,0.26243336811201284,0.2717195529199207,0.2790901422873204,0.2545595177605182,0.27160915677237346,0.2754648026435704,0.25539208281169007,0.22146613590641848,0.2422876122853671,0.2590698797663303,0.2442821677470539
0.26740060973956975,0.2616974005285125,0.27366476947400775,0.2785437541581962,0.25590589294538424,0.26349809271930075,0.2716947378704161,0.2508334806908883,0.22408736885208144,0.24612131361214856,0.2550611840928401,0.2470730133342073
0.2724568551523368,0.26010034184053105,0.2747013248974252,0.27709539107829173,0.25646753658895305,0.25476518295174444,0.2669940170050688,0.24539070061687882,0.22593260836804355,0.24915643942473972,0.25021157524011933,0.24895267670856452
0.2766574031870833,0.257638808222906,0.2748159523816145,0.27474075616539306,0.256234041316565,0.24550437768789699,0.2613790922835448,0.23908986726146347,0.22698740897520425,0.2513743710083791,0.24454198247306572,0.24990486106309714
0.2799790481406004,0.2543130203025062,0.27399953026656243,0.2714793020344841,0.2551984672339554,0.23580562340573244,0.254870194932073,0.23195136897770136,0.22724122020054838,0.25276089482306296,0.23807012024831872,0.24991785724205734
0.2824042265548428,0.2501268031582321,0.2722470820408027,0.26731423079774547,0.2533573419272544,0.225754862843007,0.2475004506261386,0.2240244773736326,0.22668738657714463,0.25330620250354513,0.23082861629480794,0.2489845437409775
0.2839210172169299,0.24508758632101557,0.2695577763414152,0.2622524940645551,0.2507106604629865,0.21543403499725897,0.23936832800766786,0.21542064231142122,0.22532314764414774,0.2530048908593379,0.22291934665654214,0.2471023867066701
0.2845231411591445,0.23921398235109334,0.2659349269540261,0.2563076825507858,0.247261885388071,0.2049210751258089,0.23058095651846403,0.2062480825454316,0.2231496379467967,0.2518559618747106,0.21444445644498816,0.24427343993722805
0.2842099616589337,0.23258107419536775,0.2613859928128078,0.24954374126317544,0.24301794672982202,0.19428991474575882,0.22124053655678697,0.19660960505009722,0.22017188703641558,0.2498628227086904,0.20550105603226498,0.24050434488202488
0.28298648423890904,0.22528392929458144,0.25592257800047924,0.24206012401495128,0.23798924199594837,0.18361048163399335,0.21144433947735333,0.1866026050199205,0.21639881947041326,0.247033285695063,0.19618122105114383,0.23580633064171388
0.2808633566668455,0.21741365492503464,0.24956011868794814,0.23395308498670095,0.23219360065366854,0.17294869982717886,0.20128470759133663,0.17631906586947363,0.21184325481228397,0.243379568342371,0.1865719923950481,0.23019521396822915
0.27785686895568196,0.20905734523715974,0.2423326687818631,0.22531469671071838,0.22569811397510248,0.16236648962176398,0.19084905416636774,0.16584555923339775,0.20652190763160616,0.23891829333391534,0.17675537621805315,0.22369139926478462
0.2739889533635229,0.200298081255522,0.2343358205184644,0.21623285007100426,0.21859220453287972,0.15192176757397918,0.18021986342653354,0.15526324496640334,0.20045347382991718,0.23367048852775482,0.16680834393488683,0.21631621811647736
0.26928718439363436,0.19121493087881905,0.2256730332846227,0.20679125430326561,0.21096154968759306,0.14166844649983704,0.16947469055237843,0.1446478711432699,0.19368203389430386,0.22766135893862308,0.15680283222092847,0.20809606236716466
0.26378477879444845,0.18188294887988177,0.2164432043441492,0.1970694369949161,0.20288797559130956,0.13165643547513226,0.1586861616809033,0.1340697740588466,0.18629749971833626,0.22091079492145596,0.1468057430122105,0.19913362198433443
0.25752059555956075,0.17237317690567297,0.20674066883779493,0.18714274408507575,0.19444945718757173,0.12193163983544152,0.14792197390556586,0.12359387822805169,0.17838901564542967,0.21349344438153495,0.13687894350541668,0.18953890842423576
0.25053913592773036,0.16275264347728835,0.19665519978325155,0.17708233986457117,0.18572011821139678,0.11253596117612356,0.13724489527628111,0.11327969638587258,0.17004159751869005,0.20550531017966692,0.12707926615788348,0.1794167730694428
0.24288637857820608,0.15308436398995665,0.18627200807515013,0.16695520697593538,0.17677023118927737,0.10350729735231907,0.12671276479942023,0.10318132948736586,0.1613361326809144,0.19703783030543098,0.11745850868759897,0.1688669072288553
0.23460653740620882,0.1434273407130388,0.17567174248506298,0.15682414641340842,0.16766621743918092,0.09487954247895092,0.11637849243781186,0.09334746670765778,0.15234937997459014,0.18817787787717807,0.10806343407320392,0.1579838421376992
0.22579069549573003,0.13383656279002862,0.16493048966150173,0.14674777752293586,0.1584706470705503,0.08668258693072395,0.10629005911074119,0.08382138544194355,0.1431539697418957,0.17900776114203107,0.0989357705539909,0.1468569489575255
0.21653199221529637,0.12436300623855223,0.15411977412991862,0.13678053800217074,0.14924223898430256,0.07894231734212495,0.0964905166939502,0.0746409513054874,0.13381840382469987,0.16960522347588547,0.09011221162990483,0.13557043877621103
0.20691872960570443,0.11505363395036897,0.14330655829270603,0.12697268390047212,0.14003586087283068,0.07168061660742306,0.08701798801963793,0.06583861813362339,0.1244070555645624,0.16004344338340856,0.08162441606154262,0.1242033626079587
0.19703437238002147,0.10595139569137033,0.13255324242919628,0.11737028961890555,0.13090252922000245,0.0649153638806691,0.07790566687646006,0.05744142798175442,0.11498016980273346,0.15039103449803976,0.07349900787015341,0.11282961139329639
0.1869575479235848,0.0970952281015808,0.1219176646956623,0.10801524791024322,0.12188940930116018,0.0587953414078237,0.06918181800952936,0.04947101112535278,0.10559386288015431,0.14071204558199057,0.06575757633763846,0.10151791599907803
0.17676204629400138,0.08852005469515711,0.11145310112531687,0.098945269878964,0.11303981518312212,0.053435325166849255,0.06086977712041508,0.04194358605995987,0.09630012263745646,0.13106596052624475,0.05841667600655111,0.09033184721848313
0.16651682022114914,0.08025678586038915,0.10120826562831327,0.09019388498125293,0.10439320972418079,0.048702194231481,0.052987950867143606,0.03486995950118677,0.08714680841496261,0.12150769835055801,0.05148782668009717,0.07932981577101693
0.15628598510717567,0.07233231885969897,0.0912273099917446,0.08179044102500171,0.09598520457410406,0.04446523220199857,0.04554981686419832,0.028255526384713216,0.07817765105268581,0.11208761320345845,0.044977513422134206,0.06856507230250998
0.14612881902649869,0.06476953782964166,0.0815498238796443,0.07376010416980851,0.08784756017413484,0.04059786218423771,0.03856392368251893,0.022100269866288734,0.0694322528903301,0.10285149436224551,0.038887186557172194,0.058085707385119145
0.13609976272580654,0.05758731378090463,0.07221083483298608,0.06612385892697806,0.08000818575699116,0.036977646789590306,0.03203389084950248,0.016398761321731684,0.06094608776728986,0.09384056623299197,0.033213261670372946,0.047934651517326184
0.12624841962405714,0.05080050459830828,0.06324080826968388,0.05889850815952184,0.072491139346866,0.033486288135004316,0.025958408849002728,0.011140160346929875,0.05275050102265045,0.08509148835054157,0.02794711960755095,0.038149675123939096
0.11661955581247925,0.044419955040805335,0.05466564748459148,0.05209667308215714,0.0653166277594272,0.030009627842983798,0.02033123912133005,0.006308214757840639,0.04487270949518793,0.07663635537851082,0.023075106475172275,0.02876338855609104
0.10725310005457123,0.03845249674148137,0.046506693649503245,0.045726793261308504,0.058501006601817986,0.02643764704158866,0.015141214063251987,0.0018812605904900005,0.037335801523368885,0.06850269710928807,0.018578533640355655,0.01980324209124131
0.09818414378610196,0.03290094820755453,0.038780725813153644,0.03979312661510667,0.05205678027265656,0.022664466364435046,0.010372237027992687,-0.0021677778990261505,0.030158736945350834,0.06071347846403391,0.014433677730871378,0.011291525933174375
0.08944294111511024,0.02776411482037571,0.03149996090121724,0.03429574941338898,0.04599260196203577,0.018588345950695317,0.006011880685626023,-0.005871388234543327,0.0233563470989817,0.053287099492681025,0.010611780635142499,0.003245370212000915
0.08105490882190575,0.02308030053978957,0.024672053716308984,0.029244474644154847,0.04031327365152441,0.014111685445097884,0.002124173233410539,-0.009267469719827143,0.016939334821800982,0.046237395373934384,0.007079049502244098,-0.004323255015842749
0.07304062635906683,0.019037244356532836,0.018300096937983356,0.02484966053818435,0.03501974611416487,0.009141023997926597,-0.0013725472223331029,-0.012399333438574422,0.01091427445103709,0.03957363641527024,0.0037966567419028593,-0.011407539767596037
0.06541588666995951,0.015525782018221282,0.01238260674859989,0.021057413252695816,0.030109118415392922,0.0035870607084468654,-0.004607724706677792,-0.015269222675605869,0.005283606342687866,0.033300563612188784,0.000720737647562589,-0.018005883566015773
0.05819264083653244,0.012396483207570098,0.006913255637487272,0.017707415279133467,0.025574628635753553,-0.0026349653593533825,-0.0077135969793662995,-0.017828767754098893,4.553498853873248e-05,0.027419049646815657,-0.0021028016956923384,-0.02412281431082506
0.05137891034700069,0.00950675518184892,0.0018808972162343066,0.014646701064747405,0.02142068085673437,-0.00960531046998281,-0.01082518030503189,-0.020355895695861177,-0.00480596152165461,0.021926037498948895,-0.004718861430659882,-0.029768902940323954
0.04497791258706974,0.006720645629037581,-0.002718817353441028,0.01172962562566711,0.017733146579695505,-0.017400078016452235,-0.014080117643965027,-0.023134209559456928,-0.009281037181881191,0.01681392852584942,-0.007433313396867674,-0.03495991278509876
0.03898802761471454,0.003908835177738987,-0.006799573997718956,0.008817863354418438,0.01444299012201888,-0.026091231886217273,-0.017618672884424206,-0.026417131197213718,-0.013393974486438835,0.012070559213549704,-0.01052158666972914,-0.03971676724941024
0.03340279816018086,0.0009486373971787675,-0.010435518084923006,0.005780408019923219,0.011445875624271712,-0.035746596461177074,-0.02158373084263573,-0.030427901255222156,-0.017163184429935145,0.0076792011768546005,-0.0142243559277826,-0.044065549811193795
0.028210929625984413,-0.0022760012027947707,-0.013748899759240912,0.002493572767499718,0.008637008419228296,-0.046429856617674806,-0.02612079726279357,-0.03535957917333647,-0.020587661600071083,0.0036185611593411776,-0.018747541452691436,-0.04803750402205886
0.023396290086911135,-0.005874501171710412,-0.016863342485120468,-0.0011590098811381136,0.005911135031870409,-0.058200557726497515,-0.03137799881705956,-0.041375043185174265,-0.023628660183347555,-0.0001372189666414177,-0.024262309129243858,-0.051669033507289346
0.018937910290016974,-0.009949650118474053,-0.01990384304726927,-0.005286388027880062,0.0031625431793869782,-0.07111410565287606,-0.03750608310556351,-0.0486069903181161,-0.026389972488462036,-0.00361856219997252,-0.03090507044535331,-0.055001701965843496
0.01480998365462816,-0.014597602711369067,-0.022996771550654733,-0.009990290398219597,0.00028506177117428304,-0.0852217667564856,-0.04465841865640278,-0.05715793639330615,-0.028991213442197454,-0.006860456410758599,-0.03877748249205824,-0.05808212274425105
0.010996600567338994,-0.01990788067805572,-0.02626987142050396,-0.015365126341254498,-0.0028279390911643033,-0.10057066789144474,-0.052990994925642715,-0.06710021602565178,-0.031553229108476494,-0.009811799773603455,-0.04794644796352187,-0.06082410621616737
0.007510544078458641,-0.025963372805571587,-0.029852259402304234,-0.02149798582968594,-0.0062835481138181215,-0.11720674309321437,-0.06266242229731646,-0.07847598262382384,-0.034198096688361906,-0.012534932365340022,-0.058444115157032746,-0.06334699410794106
0.004247060720281436,-0.032840334940331686,-0.03387442556180239,-0.028468639459819405,-0.010189312810769088,-0.13514209715126402,-0.07383393208342495,-0.09129720839025639,-0.03704912452005605,-0.015247669197538827,-0.07026787797300417,-0.06595951812077637
0.0010816963998814201,-0.04060838998812786,-0.03846823328500522,-0.036349538451563954,-0.014653239503792059,-0.15257625277363177,-0.08666937652393704,-0.1055456843211467,-0.04023085207890141,-0.01815289936686887,-0.08338037591497462,-0.06893848102767314
-0.0021150649579943434,-0.049330527914129486,-0.04376691927817935,-0.04520581464843283,-0.019783793322454498,-0.167216453967571,-0.10133768734530581,-0.12117509901182638,-0.04386904997738021,-0.02143849078356036,-0.09770949408960747,-0.07252875667342713
-0.005477801410925321,-0.05906310574288282,-0.04990509356785115,-0.05509528051754292,-0.025689898204116723,-0.177030687890239,-0.11783598835003709,-0.13815785717240484,-0.04809071996511451,-0.025277290171405148,-0.11317625289742446,-0.07694328997463018
-0.009146152998817565,-0.06985584755831169,-0.057018739500807006,-0.06606842914961518,-0.0324809368939317,-0.18024768484869716,-0.13529922095396404,-0.1554739500912648,-0.053024094928866373,-0.029827123067756294,-0.12953501197321002,-0.0823630969196696
-0.013264821743903612,-0.08175184450371692,-0.06524521374409299,-0.0781684342589744,-0.040266750944845255,-0.17535691829991087,-0.15265618330941996,-0.17173796346045572,-0.05879863889253752,-0.03523079382352813,-0.1455553969779831,-0.08893726456872891
-0.017983571650742616,-0.09478755478177647,-0.07472324628501513,-0.0914311501835491,-0.049157640717595756,-0.16110860485074957,-0.16882968365251105,-0.18562472154719614,-0.06554504701716968,-0.041616085603196414,-0.15991246619617444,-0.09678295105378731
-0.023457228706220242,-0.10899280365454563,-0.08559294043113921,-0.10588511188487196,-0.059264365380714536,-0.1365137042579867,-0.18273654030311645,-0.19586928719387328,-0.07339524560094446,-0.049095760384798195,-0.17135134668056834,-0.10598538557861964
-0.029845680879548926,-0.1246241639476402,-0.09799577281029088,-0.12156070336699608,-0.07069814291052558,-0.10084391942829969,-0.19328758166488771,-0.20126696181804352,-0.08248239207918326,-0.05776755895993211,-0.17868723425230204,-0.11659786841879698
-0.03731387812226733,-0.14275206905207188,-0.11207459337055571,-0.13973451896673178,-0.0835706500911455,-0.05363169641827014,-0.19938764622524946,-0.20067328541243232,-0.09294087502434736,-0.06771420093375785,-0.18080539350086575,-0.128641770921686
-0.046031832368240995,-0.1612944927783192,-0.12795824080750862,-0.1592791220334303,-0.0983494432785121,0.005329775565616553,-0.19993558255539912,-0.1930040365449339,-0.1049063141460379,-0.07900338472499652,-0.17666115778410305,-0.1421065355064492
-0.0561746175336621,-0.177827517970944,-0.1452140991478924,-0.1775214134763967,-0.11494828324995342,0.0759865641669707,-0.19382424931030673,-0.17723523235861155,-0.11851021157498086,-0.0916877875659307,-0.1652799292282104,-0.15694967566404502
-0.06792236951704897,-0.19021923002065588,-0.1627441452867435,-0.19210004240675457,-0.13175921686305503,0.15802399387949853,-0.1799405152287153,-0.1524031285716975,-0.133378736374397,-0.10580506550240416,-0.1457571787277374,-0.17309994998417103
-0.08146589426020352,-0.19662971686431233,-0.17942372069085383,-0.20096540613744604,-0.14726501015995805,0.2508666460470032,-0.15716525913314056,-0.11760421947759316,-0.14865609395834914,-0.12145267763438979,-0.11725844594558704,-0.1905102626626467
-0.09684176672172916,-0.19551106898491868,-0.19413889579173677,-0.20237965018323156,-0.16008200334686526,0.353678358863382,-0.12437336992987097,-0.07199523794486844,-0.16346476135797716,-0.13803117916545637,-0.07901933931301489,-0.2081272178658854
-0.11347416075448646,-0.1856073794116282,-0.20578646998562755,-0.19491666826069015,-0.16896011079404177,0.46536222737263006,-0.0804337466089679,-0.014793155417263126,-0.1769169275840528,-0.15441728409596953,-0.030345536029630187,-0.2245507258134573
-0.13063930176951769,-0.1659547437197421,-0.2132739716334829,-0.17746210228821943,-0.17278282103581477,0.5845606036723202,-0.024199119877953975,0.054724818086315255,-0.18811449362697982,-0.16951699939796488,0.02938721793660502,-0.23844744785700087
-0.14755962882997353,-0.13588126003070933,-0.21551965806098106,-0.1492133423860355,-0.1705671967705735,0.7092798774708757,0.04520081405602331,0.13769163421109584,-0.19614907245679405,-0.18226737173191881,0.10073310784937592,-0.2485507964802229
-0.16340379465111263,-0.09500702901212675,-0.21145251555852201,-0.109679526876173,-0.1614638748607692,0.8334440874938384,0.12718355158386813,0.23471752133996307,-0.2001019890231636,-0.19163648744674852,0.1850312803358621,-0.25366093529889855
-0.17728666560030204,-0.043244153877739284,-0.20001225938122727,-0.05868154228248487,-0.1447570663329154,0.9501606519871892,0.22051385067625534,0.3423218341107998,-0.19904428025538834,-0.1966234725798119,0.2813451288541034,-0.2526447790608712
-0.18826932169701704,0.01920325961256049,-0.18014933374893985,0.0036479766693569013,-0.11986455637758765,1.0535795301279065,0.32352382946407676,0.4567562287014903,-0.19203669506240045,-0.1962584928569076,0.3858532475767882,-0.2444359936460527
-0.1953590566128409,0.09183910315273218,-0.15082491184622457,0.07686464705186268,-0.08633770434942332,1.1388932220239654,0.4341129662384399,0.5743201307247733,-0.17812969433276404,-0.1896027536922752,0.49482135066757016,-0.22803499606642308
-0.1975093776714656,0.17387526589058686,-0.11101089582236759,0.16021233773572396,-0.04386144376712223,1.202336768714339,0.5497480994506686,0.6913607352282409,-0.1563634509346754,-0.17574850018859484,0.6046198396230014,-0.20250895446603073
-0.19362000584869063,0.2642316344277887,-0.059689916791376946,0.25262316938981294,0.007745717686553643,1.2411877521689978,0.667463427712303,0.8042730066943389,-0.12576784971596286,-0.15381901713698734,0.7117238032725319,-0.16699178812099258
-0.1825368757724244,0.3615360928198536,0.004237531728370341,0.35271751448118444,0.06853169816478076,1.2537662952889077,0.7838605097951004,0.9094996790403668,-0.08536248750408656,-0.12296862901701464,0.8127130177785106,-0.12068416743949374
-0.1630521357226831,0.4641245225761488,0.08151441283612688,0.4588039972750745,0.1384108416566732,1.2394350619060353,0.8951082646310325,1.0035312556184786,-0.034163304994213106,-0.082382699996679,0.9042719466361847,-0.06285351396178757
-0.13390414763159136,0.5700408026598953,0.17093175306564043,0.5688794938349001,0.21716391798728263,1.1985992567833417,0.9969429713122895,1.0829060092156813,0.028200934775651658,-0.03127763393242377,0.9831897406736981,0.0071659996398043355
-0.09403416304144552,0.6770368094881641,0.27076438672508757,0.6806291320222599,0.3044381228175991,1.1327066256147862,1.0846682690912766,1.1442099820538352,0.10115522442234748,0.031099125630866937,1.0463602380520953,0.09003267907493508
-0.0431555600556552,0.7825724169318812,0.37895737062737994,0.7914262914969351,0.3997470776445504,1.0442266876196367,1.1531551573806151,1.1840769857896558,0.18372031645430323,0.10597460644388683,1.0907819642653183,0.18741107156253123
0.019366894645047848,0.883109320064077,0.49312598409016467,0.8982401422353318,0.5022723232046221,0.9367378630218055,1.196841194168634,1.1991886015147102,0.27454095793317385,0.19296383940150105,1.1135581321402062,0.2968863584553509
0.09369846535844349,0.9726124814218433,0.6105557289358234,0.9955043131358126,0.6081574816128633,0.8158604978401096,1.2107668671236842,1.186274206032147,0.37188589047384013,0.2894581807061539,1.1118966418364973,0.41450847437066757
0.17945344824287998,1.0462674706165738,0.7282023294914726,1.077585489676096,0.7120535981952538,0.6871039961680213,1.1958903817974977,1.1437591764297212,0.47364785024440925,0.3927382343004079,1.0831404525790147,0.5364193860638915
0.27569517131727367,1.1003692020069888,0.842691732588964,1.140322024869179,0.8092081884513993,0.5553590076267901,1.1551807430051193,1.07579293355745,0.5773435679662138,0.4999940881003955,1.0276060489028296,0.6588530924285699
0.3809359944611085,1.132262237643542,0.9503201075648847,1.1806348757473268,0.8954876358041595,0.4248974273654412,1.0917346491981443,0.9874876280802237,0.680113768913813,0.608325313995819,0.9503554968274456,0.7781356244963864
0.49313730941443656,1.1403407872684164,1.0470538462605565,1.1965276033620682,0.9673771915996432,0.29937239606077887,1.0087764924647258,0.8836197588668905,0.7787231729149923,0.7147409678499503,0.8565075397816372,0.8906850454371616
0.6097095397778783,1.1240487083155253,1.128529563022035,1.1870863727841992,1.0219809751072113,0.18181829991738266,0.9096583585295687,0.7686301729902587,0.8695604943507619,0.8161595894996314,0.7507831261107755,0.9930114505588524
0.7275121410126222,1.0838795059105133,1.1900540947001128,1.1524799531037808,1.0570219735194757,0.07465077066760928,0.7978600267539336,0.6466240657270955,0.9486384421553596,0.9094092027552734,0.6375054090768278,1.0817169673075535
0.842853600440424,1.0213763328707566,1.226604500650317,1.0939597174301405,1.0708420419522988,-0.020333314428407138,0.6769889701356361,0.5213709805581256,1.011593719816248,0.9912273154008576,0.5205997468583567,1.1534957552674943
0.9514914372257113,0.9391319896978866,1.2332694713900225,1.0138596428915834,1.062401903443263,-0.10195583258933902,0.5507803553116317,0.3963048091801151,1.0536870238318476,1.0582609191819627,0.40359370255767063,1.2051340061746683
1.0486318968941493,0.8407887970176895,1.210398745288248,0.9155963057273585,1.031281122788603,-0.16965752788807492,0.423097086711868,0.27452399771862,1.0703661422572117,1.1070662854586808,0.2896171662223309,1.2335101764584202
1.1289291740957064,0.7310382710287088,1.1616714499813057,0.8036688688001357,0.9776804870320569,-0.22315323101971565,0.2979299188999979,0.1587920713954429,1.0619692350466157,1.134108445284975,0.1814026653046858,1.235595578897431
1.1873611070218977,0.61542952355241,1.090787304922358,0.6836590951397823,0.9035612573631072,-0.2612232194550782,0.17939733473035313,0.0515370654823028,1.0308975189392773,1.1357617533066893,0.08128502794219004,1.2084553848049249
1.221899565305945,0.49778087423454553,1.001429202780008,0.5608161882636705,0.8137367402856779,-0.28546578654181076,0.07174551069381868,-0.04514863654512255,0.9796765308273746,1.1093735796056092,-0.008798712811105345,1.151514816713883
1.2317641032036648,0.3813490992944552,0.8972632047557854,0.43825504355819117,0.7129956750000561,-0.29785856429773905,-0.022357452780823184,-0.129508286725084,0.910956136631087,1.057803470222491,-0.08730933751765806,1.0698873412512042
1.216854570578278,0.26918335287967626,0.7819385213166434,0.3192573911106808,0.6056777672919532,-0.30025622697970084,-0.10320113237666732,-0.2001424051977327,0.8275105678173982,0.9855393504715327,-0.15310525750931528,0.9691181787250124
1.1777512561406698,0.16386195609309162,0.6590875285079947,0.20663026041725743,0.49567372297281753,-0.2943904885418187,-0.17068057460759672,-0.2567353723034732,0.7322383904810662,0.89683651774295,-0.20537632185947835,0.8543397936050996
1.1157148981835692,0.06749239699443695,0.5323257755874024,0.1026995206035274,0.38642526352824985,-0.28187010144609836,-0.22489594653489328,-0.3000895614909545,0.6281624908760428,0.795717232640161,-0.2446628458888864,0.7302718738626326
1.032686684586173,-0.01828866939969941,0.40525198502787485,0.009309880423948966,0.28092512612474396,-0.26418085666191565,-0.266155831067357,-0.33113299481376784,0.5184300754092402,0.6859707189790514,-0.27210513123450836,0.601221330961251
0.9312882528141482,-0.09231542111587517,0.2814480525178586,-0.07217511173816676,0.18171706360968767,-0.2426855836660172,-0.2949772269613055,-0.35085629212666297,0.4063126706405314,0.5711531637879772,-0.2888579621868258,0.47108229985706945
0.8148216899196298,-0.15389286922379564,0.16447904696124424,-0.1408730678706573,0.09089584451136141,-0.2186241504425199,-0.31208554882057354,-0.360312671085548,0.29520612328275037,0.4545877173077629,-0.29609060568983353,0.3433361389986759
0.6872695325412206,-0.20279685783631216,0.05789321047736269,-0.1963827603325073,0.01010725303894061,-0.19311346348291142,-0.31841462709651447,-0.3606179471474895,0.18863060020169223,0.3393644929917026,-0.29498681134103927,0.22105143032713184
0.5532947669040017,-0.23927406410942184,-0.03515379657414281,-0.23878412185384812,-0.059451910917503514,-0.1671474677860509,-0.31510670808799895,-0.352950533570713,0.09023058841611667,0.22834056750556497,-0.28674481139146435,0.10688397927597892
0.4182408288194982,-0.264041998242274,-0.11447116852952678,-0.2686382455359654,-0.11697283595191701,-0.14159714685816407,-0.30351245394141485,-0.3385514414146006,0.0032549111135329926,0.1241399807275698,-0.27257732074564134,0.003076814771214013
0.2881316036857279,-0.27828472314749486,-0.18025950345069244,-0.28698738485128455,-0.16232745525248654,-0.11721052271285086,-0.2851909426506682,-0.3187242795396944,-0.07222776696171666,0.029153735748424538,-0.2537115369616172,-0.08853981076867375
0.1696714264871695,-0.2825124034049412,-0.23274183024968048,-0.29501872985644256,-0.19616904556972659,-0.09461265587108124,-0.2619096680571821,-0.29483525460769416,-0.13614718997100717,-0.05446020112870047,-0.23138914025095178,-0.16654842143272647
0.06709672385315167,-0.27780777094129094,-0.27232763210615857,-0.29315642593398467,-0.21926995187705284,-0.07430564536119434,-0.2356445398498985,-0.2683131710814588,-0.18845182924713252,-0.12513783244773802,-0.20686629347871732,-0.22994069643844203
-0.023007249643770423,-0.26606123609348786,-0.2996128464674211,-0.28325133156393717,-0.2324945675348671,-0.05666862871890078,-0.20850294351128146,-0.24064943122500465,-0.2292889373199973,-0.18307402608780893,-0.18141364216349984,-0.27896744031528453
-0.10040143018298439,-0.24899196254376457,-0.3153798650483897,-0.2671738858622995,-0.23679933429055816,-0.04195778198728198,-0.18172042534847302,-0.21339803510350686,-0.2590045479166164,-0.22872297380528453,-0.15631631447739758,-0.31469802308370465
-0.16483332535119202,-0.22814786731964232,-0.32059753383161266,-0.24661354960899473,-0.2332327422785015,-0.0302103386098612,-0.1559536778473929,-0.18810309516868307,-0.27814347596111555,-0.2626445525027776,-0.1328739212460223,-0.33825142846632505
-0.21629299405538147,-0.20490562079393074,-0.31642115306726576,-0.22307880524786883,-0.22293533002005883,-0.020691981012449137,-0.1317633084637976,-0.165310259116202,-0.28744931757473025,-0.28552397414084313,-0.11223491594651257,-0.3507889652769845
-0.25501304652282675,-0.1804706466847283,-0.3041924772731505,-0.19789715688669113,-0.20713968442357888,-0.012965222758104215,-0.10959057990794067,-0.14499618748133922,-0.2878644500758069,-0.29817178573797914,-0.09437370453117935,-0.3535142674207369
-0.28146864430108803,-0.15587712205542198,-0.285439715234697,-0.17221513029715446,-0.18717044078439687,-0.006718783739951976,-0.08975741014457334,-0.12713103303960266,-0.2805300319798024,-0.30152386937062603,-0.07904448812861728,-0.347673293893852
-0.29637750025801196,-0.13198797731468745,-0.2618775300049606,-0.1469982729148749,-0.16444428278483472,-0.0016678020404741895,-0.07246637239294403,-0.11165086245366054,-0.2667860029992835,-0.2966414421731668,-0.06603495321308572,-0.3345543287838148
-0.3006998785817311,-0.10949489621648885,-0.23540703890462475,-0.12303115383939157,-0.14046994249420086,0.002446166068490926,-0.05780069512679885,-0.09845765627334137,-0.2481710840439281,-0.284711056337927,-0.05512976219783054,-0.3154879812693259
-0.2956385947806641,-0.08891831586007908,-0.2080680438198822,-0.10091736383416709,-0.11683803990968361,0.005855146125748833,-0.04572426207438094,-0.0874193089356335,-0.22642277722052412,-0.26704459911517486,-0.046110553435084044,-0.2918471856203016
-0.2826390156835158,-0.07060742668999942,-0.1811603467663441,-0.08107951532658744,-0.0946200906745025,0.008764745480748565,-0.03608161221843132,-0.0783696287646859,-0.20321876992151075,-0.2450792928131213,-0.038755941216065556,-0.26504720119787367
-0.2633890594392773,-0.05474017249608003,-0.15532396893737663,-0.06375924240796155,-0.07412139520913229,0.011354153293582725,-0.028597939796188004,-0.07110833797180742,-0.1795388567962356,-0.22037769479791983,-0.03284151577098098,-0.23654561245438957
-0.23981919551722583,-0.041323250413439504,-0.13109427023120374,-0.04901720083352204,-0.05555481530064378,0.013776140534987581,-0.022879094299386445,-0.06540107265546721,-0.15617429303425512,-0.19462769749366615,-0.028139843269022892,-0.2078423289334122
-0.21402498961517005,-0.03019211092248505,-0.10889229790029643,-0.036733068022424674,-0.039063020955734294,0.016157059986343005,-0.01841158047425966,-0.06097938280129455,-0.1337900473276923,-0.1694536368393551,-0.024420465818370714,-0.18047958526971966
-0.18737958129625656,-0.020978680522653777,-0.08902478655137255,-0.026602434624554517,-0.02471849040072776,0.018596846239672442,-0.01458286545148984,-0.057540732282079295,-0.11292408912144437,-0.14553881125810347,-0.02144990146619022,-0.15583481350196524
-0.16079742024670207,-0.013211258498732352,-0.0716841581453971,-0.018145050386780232,-0.012523510081574447,0.021169015697643137,-0.011207262339218564,-0.05474849885777093,-0.09398738861318183,-0.12325482603344087,-0.018991644198634305,-0.13402822950899637
-0.13507399644594373,-0.006688254846099415,-0.056948521997581825,-0.01108106771359272,-0.0024101746638512497,0.023920666573565556,-0.008249644887752232,-0.052234746955268495,-0.0772639167533493,-0.102895071236452,-0.016806163940842226,-0.11492807666174355
-0.11086242144969721,-0.0012412630737086078,-0.04478167477738578,-0.005216212129582609,0.005759612967238294,0.026872478891394175,-0.005599410716976139,-0.04983718541975422,-0.06291064524516489,-0.08466891895456818,-0.014672785493605591,-0.09840658182944856
-0.08867342838995622,0.003288251783770927,-0.03503310050851476,-0.00036809701247990465,0.012194141706864175,0.030018714485726895,-0.003156798713751836,-0.04755175231051504,-0.050957546544620674,-0.0687017232915668,-0.012548318855179538,-0.08431365283051126
-0.06887537197499277,0.007048953165955472,-0.027437970568921662,0.003633776406845714,0.01717189223056996,0.033327217001805146,-0.0008328890319173473,-0.04532745461138667,-0.0413075938604823,-0.05503482036757184,-0.010410674436222239,-0.07247687843248954
-0.0516942284893571,0.010179632986745962,-0.02161714369080622,0.006948019044385073,0.021041536994272268,0.036739411895514267,0.0014503969077135858,-0.04311744330075152,-0.03373676115428926,-0.04362552831905334,-0.008229835405720587,-0.06270152835209962
-0.0372135957938773,0.012809211634328448,-0.017077165960615304,0.00972135396298927,0.02422194023426182,0.04025445415290971,0.0037602964173506226,-0.04087901335153876,-0.027894023140354964,-0.034347147298828,-0.005978021405473637,-0.054770553255215876
-0.0253746933256602,0.015056737971174159,-0.013218501451001825,0.012088616372370251,0.02707995272403435,0.04395390636271206,0.0061532055422275425,-0.03857360373122426,-0.023301355285766327,-0.02698895947605869,-0.003629688550093078,-0.0484445847568707
-0.015976362098090457,0.017031389334039075,-0.00980119077896231,0.01417275362910006,0.029638089494021934,0.04784881871952242,0.008674679060601749,-0.03616679740183084,-0.019382716626293386,-0.02125622903625464,-0.001161529427003336,-0.043461935421254726
-0.0086750647008312,0.01883247153396428,-0.0068048269385017545,0.016084825236611304,0.03197215274534132,0.05194901882021627,0.011359430483754464,-0.03362832131992796,-0.01599478713967672,-0.016770202181271416,0.0014475269035590728,-0.039538598761716656
-0.0029848852998236707,0.020549418856275897,-0.004119430053268812,0.017924002845196803,0.03415675786083162,0.05626357914641254,0.014231332055990729,-0.03093204643663202,-0.01308786238512918,-0.013068107129310976,0.004216314908544806,-0.036368249240763414
0.001722470362712925,0.022261794060585007,-0.0016455908655284885,0.01977757025201046,0.03625875490328328,0.06080081706447278,0.01730341475463957,-0.028055987697605995,-0.010546322424419344,-0.009740158945051971,0.007161432582092243,-0.03362224227006017
0.005886879494926863,0.0240392883807877,0.0007055292638374403,0.021720923401066038,0.038337228615437834,0.06556829482550165,0.0205778682900536,-0.024982304043059875,-0.008265788195070187,-0.006776204751440544,0.010297241445526975,-0.031007843748789593
0.009479718175167956,0.02594172152506506,0.0030121983553306037,0.023817570383237813,0.04044349841998816,0.07057281956534688,0.02404604110560929,-0.02169729840775034,-0.006153121510358874,-0.004093936104516184,0.013635866547362388,-0.02849605129396856
0.012629787278053054,0.028019041675883226,0.005342113810835974,0.026119131436260837,0.042621118419578156,0.07582044330459899,0.027688440377706996,-0.018191417720980773,-0.00412642505931717,-0.00160999878877256,0.017187196463299238,-0.026046828783100148
0.015454997302814934,0.03031132548999328,0.00775240241362217,0.028665338944730275,0.04490587739680349,0.08131646294859174,0.03150759131281521,-0.014459252906601522,-0.0021150424067307157,0.0007505913235191453,0.02095888329622584,-0.023614974376730866
0.01806095975051776,0.03284877809843126,0.010289620328340443,0.03148403744010186,0.04732579881421063,0.08706542028740168,0.03553404126953173,-0.010499538883009392,-5.955799313996109e-05,0.0030544482723101354,0.024956342676217918,-0.021159115947745322
0.02054098712405705,0.035651733106518285,0.012989753101026399,0.034591183600691806,0.0499011408142973,0.09307110199584841,0.03977816740777064,-0.006315154563148404,0.0020882028651606106,0.005359816009774158,0.029182753760538596,-0.018641711081366693
0.022976092928159313,0.038730652593860465,0.015878215659098225,0.03799084625167701,0.05264439621951278,0.0993365396334944,0.04424939359826156,-0.0019120837326501489,0.004365173976122175,0.007716568400307338,0.033639059233638864,-0.016029047075155886
0.02543501370034871,0.0420861598758824,0.018969840018593313,0.04167520503983886,0.05556029714083372,0.10586402453288837,0.048956200624554594,0.002719289560895977,0.006797048828223511,0.010166224858318305,0.03832409835596211,-0.013291253150270597
0.027974599958603723,0.045709620869373135,0.022268657144510384,0.04562452691642028,0.05864589675866336,0.11265537199694813,0.05390608718214642,0.007591846896613032,0.009398290461904196,0.012742227846603428,0.0432407378300402,-0.010402517144763026
0.0306397699975249,0.04958307538426984,0.025767922731468426,0.04980716891647941,0.06189055965762156,0.11971189007500704,0.059105574487768375,0.012714374309747567,0.012172130302917243,0.01546991008042597,0.04839733272107463,-0.0073410599038585345
0.03346315586294611,0.0536787106640157,0.02945031474160107,0.0541795994550043,0.0652869469742394,0.12703414031702318,0.06456024159689858,0.018094461062733377,0.01511055922318324,0.018366243236918826,0.05380115461909869,-0.004088939051820776
0.036465090602531995,0.057958842426338406,0.03330730786138032,0.05868639909384388,0.06885872209139006,0.13462192915769727,0.07027472667564116,0.02373852252783804,0.018194327218869148,0.02143982890543728,0.059458213093700474,-0.0006320419252515594
0.03965360826577892,0.06237591486325136,0.03737166322415217,0.06328638922945604,0.07261635426276115,0.14247430791647334,0.07625272700072594,0.029651800187162736,0.021414453063118354,0.024690898587558924,0.06537325569402327,0.0030399144269088576
0.043024443904013936,0.06687493940455529,0.041654744266092725,0.06808508811408191,0.07656812015626292,0.15058957279753812,0.0824969989595086,0.03583836163264275,0.02480564236054287,0.028111313697084032,0.07154976794876523,0.006933383243382109
0.04656103357039592,0.07152317635305881,0.0461657844567831,0.0731111063578446,0.08072143547905039,0.15896526488982116,0.08900935804997022,0.04230110056604716,0.028378155043125346,0.03168502013525964,0.07798997336617915,0.0110509880505515
0.050240949707078375,0.07638359023069764,0.050913098512048456,0.07837193051470213,0.08508285497752216,0.16759817091412446,0.09579067888071784,0.04904173679897877,0.032140231419751364,0.03542288307292191,0.08469483343407302,0.015391522662462237
0.05409510108103493,0.08146350657992746,0.05590408239395805,0.0838739108559112,0.08965807243732123,0.17653115587558427,0.102840895170984,0.05606081625287423,0.03609937365020706,0.03934617597801801,0.09166404761980958,0.019949955878280433
0.058142678775267805,0.08676908793345202,0.0611452133108255,0.08962226137002755,0.09445192068333479,0.18578894465545967,0.11015899975062735,0.06335771095900407,0.04026234574517857,0.043464179471673706,0.09889605337030669,0.02472821298885013
0.06239350897331699,0.09230533381422243,0.06664204971720838,0.09562105976290537,0.099468371579694,0.19534191218609803,0.11774304456013163,0.07093061905847277,0.04463517356625249,0.047785309504974,0.10638802611203686,0.029740105915174696
0.06685654235963606,0.09807608073543796,0.07239923131390834,0.10187324745769824,0.1047105360297743,0.20516070150828947,0.12559014065060692,0.07877656480221856,0.04922314482591515,0.05231711735896329,0.11413587925102774,0.034995634906514014
0.07153985411959148,0.104084002200545,0.07842047904797138,0.10838062959485797,0.1101806639761952,0.21521622377126748,0.13369645818378859,0.08689139855101345,0.054030809087553644,0.05706628964464513,0.12213426417286205,0.04050353903404919
0.07645064393946319,0.11033060870323795,0.08470859511268766,0.1151438750321355,0.11588014440082042,0.22547965823270838,0.14205722643203786,0.09526979677546325,0.05906197776545482,0.062038648302982606,0.13037657024267685,0.04627129619088226
0.08159523600644424,0.11681624772745924,0.0912654629475911,0.12216251634458067,0.12180950532475764,0.23592245225873146,0.15066673377834178,0.10390526205600784,0.06431972412480604,0.06723915060489796,0.13885492480516454,0.052305123092035825
0.08697907900864137,0.12354010374739811,0.09809204723846025,0.12943494982454168,0.12796841380835905,0.24651632132389936,0.15951832771631286,0.11279012308292073,0.06980638328169475,0.07267188915127265,0.14756019318457247,0.05860997527445395
0.09260674613507387,0.1305001982274924,0.10518839391731737,0.13695843548166634,0.13435567595122028,0.25723324901121747,0.1686044148501896,0.12191553465630942,0.07552355220310852,0.0783400918729478,0.15648197868470282,0.06518954709700125
0.09848193507567506,0.13769338962242708,0.11255363016242918,0.14472909704290035,0.140969236892182,0.2680454870121347,0.17791646089483595,0.1312714776861149,0.08147208970693538,0.08424612203072342,0.1656086225889125,0.07204627174046341
0.10460746802129096,0.14511537337713495,0.12018596439830653,0.15274192195248903,0.14780618080932828,0.27892555512654227,0.187470298879609,0.1408467591921126,0.08765211646196314,0.09039147821535923,0.17492720416011354,0.07918132120754698
0.11098529166368103,0.15276068192679682,0.12808268629570402,0.1609907613719759,0.15486273091998787,0.2898462412627753,0.1972729860781397,0.15062901230391132,0.09406301498788028,0.09677679434757402,0.18442354064077307,0.0865946063228796
0.11761647719551808,0.16062268469684052,0.13624016677162093,0.16946833018020382,0.16213424948073307,0.3007806014376117,0.20729497653059809,0.1606046962609537,0.10070342965527511,0.10340183967804595,0.1940821872529128,0.0942847767330098
0.12450122031038809,0.16869358810294227,0.14465385798930053,0.1781662069733142,0.16961523778738088,0.3117019597762721,0.21750691240028708,0.17075909641251646,0.1075712666856364,0.11026551878741232,0.20388643719810948,0.10224922090640697
0.13163884120279046,0.17696443555102573,0.1533182933582297,0.18707483406474737,0.17729933617499222,0.32258390851242036,0.22787967594005326,0.18107632421770994,0.11466369415135316,0.11736587158627002,0.21381832165749468,0.11048406613346132
0.13902778456813772,0.18542510743726187,0.1622270875341402,0.19618351748524201,0.18517932401787213,0.33340030798816367,0.2383843894922879,0.1915393172454788,0.12197714197571433,0.12470007331517531,0.2238586097917551,0.11898417852648421
0.14666561960275498,0.1940643211480694,0.17137293641900705,0.20548042698283595,0.19324711972956912,0.3441252866540513,0.24899241548892495,0.2021298391746001,0.1295073019329088,0.13226443454464315,0.2339868087411318,0.1277431630197075
0.1545490400038826,0.2028696310601161,0.18074761716105117,0.21495259602286668,0.2015034045489337,0.3547332410690779,0.2596753564514448,0.2128284797936873,0.137249127648027,0.14005440117514895,0.244181163625422,0.13675336336928537
0.16267386396967223,0.2118274285403157,0.19035230077499427,0.2245859217879694,0.20997080550938255,0.36519883590067875,0.2704050549908698,0.22361465500118555,0.1451989392714301,0.14806455443712627,0.2544186575439767,0.1460058621532911
0.1710350341991895,0.22092294194583031,0.20021170818416703,0.23436516517807834,0.2186264438316641,0.3754970039247334,0.28115359380776683,0.2344666068053744,0.15338389174831624,0.15628861089096865,0.2646750115757022,0.15549048077172004
0.17962661789241338,0.23014023662406982,0.21030155203811984,0.2442739508104268,0.22744289816295182,0.38560294602556383,0.291893295692247,0.24537714954377862,0.16179595227283414,0.16471942242702867,0.2749246847790596,0.16519577944648822
0.18844180675023592,0.23946221491269168,0.22059252727009326,0.25429507111455285,0.23639308118446883,0.3954921311959354,0.30259672352396544,0.25635090852400355,0.17041144916716114,0.17334897626561832,0.2851408741920651,0.1751090572214322
0.19748483492926625,0.24887061613960093,0.2310555670048299,0.2644413571895169,0.24545023961148799,0.40514029653705713,0.31323668027212126,0.2673492351316031,0.17920682768367385,0.1821683949570089,0.2952955148322895,0.18521635196231007
0.20677787606052558,0.2583460166229503,0.2416618425585727,0.2747020299024263,0.2545879541933319,0.4145234472585799,0.32378620899545735,0.2783329220377208,0.18815865000494816,0.19119081744291827,0.30535927969685883,0.19550244035680048
0.2162972086459813,0.2678833881619343,0.2523827634390667,0.28504058086245515,0.263780139713373,0.42361785667859864,0.3342185928422612,0.2892639585510426,0.19724359524375876,0.20041939429445588,0.31532003155488686,0.20595083791450342
0.22601582467799805,0.2774906897348002,0.2631899773455575,0.295421415760011,0.2730010449890334,0.4324000662236508,0.3445073550503639,0.300105530617797,0.20643845944307995,0.20982673764743495,0.32517960031188586,0.21654379896693932
