I,II,III,aVR,aVL,aVF,V1,V2,V3,V4,V5,V6
1.1166878026254914,1.0595547773491716,1.1346396898159314,1.0956299589470435,0.9670774572118317,1.1465611496627603,1.1099924868942443,1.138013494115377,0.9744939001009634,1.0614614537069245,1.0443744246192974,0.5829913843253706
1.1059975386528647,1.0496425898017816,1.123888670470396,1.084687982203845,0.958119776637184,1.1356194360302718,1.0993923479698202,1.1269663412253297,0.9648565839375964,1.0509066367372883,1.0343451210607806,0.5760178208269222
1.0800650308078832,1.0255029831043931,1.0978037721766478,1.0578158225484764,0.9364174164790475,1.1089365771028696,1.073703183236231,1.1001278625199282,0.9412404002535653,1.0250991225781554,1.0099340849989784,0.5591361734304722
1.0386139034594597,0.9869270594090866,1.0561102358434347,1.01491645891674,0.9017276226214083,1.0663011907526472,1.0326415046455155,1.0572327868044282,0.9035258106719651,0.9838729564528254,0.9709215800350094,0.5321525434394623
0.9833801499675053,0.935633444822029,1.0005644605430923,0.9581161547238614,0.8554785399107432,1.0096485850330592,0.9779090346990862,1.0001276568926312,0.8535326759945023,0.929162772512399,0.9190273094583086,0.4961681904506151
0.9165446468057167,0.8736962677329793,0.9333652114570634,0.8898184570271424,0.7994859738151046,0.9412867004252817,0.9116602794446441,0.9310916395626995,0.7933507005586157,0.8632277772889281,0.8563401053838976,0.4525925616790211
0.8401944001451027,0.8030980883592435,0.85661638696115,0.8123153543010732,0.7354880798416543,0.8634207450744658,0.8359573711875121,0.8523047083189671,0.724973887037994,0.7882250823638663,0.7848569958568443,0.4027750214214003
0.7563225458539831,0.7257298987456775,0.7723270186255116,0.7277872764373334,0.6651453635366625,0.7781531947897379,0.7527700684906353,0.7658476433919402,0.6503005364425783,0.7062097043680713,0.7064832048522601,0.34800485105610424
0.6668283494979883,0.6433911227646856,0.6824112712146662,0.6383030947447903,0.5900406804855094,0.6874837930442019,0.6639757561745792,0.6737020317382985,0.5711332481185609,0.6191345649818033,0.6230321522753004,0.289511249043114
0.5735172063400619,0.55778961611622,0.5886884426874901,0.5458201219495004,0.5116792363126832,0.5933095509749348,0.5713594453175312,0.5777502670408938,0.48917891974838495,0.528850490934726,0.5362254539611662,0.22846333092404073
0.47810064134045743,0.47054166632778177,0.4928829641972179,0.45218411219470844,0.43148858668178164,0.497424747382991,0.4766137732553008,0.47977554970875075,0.4060487473507455,0.4371062140059059,0.44769292167510255,0.16597012932212746
0.38219630915673986,0.383171992754421,0.3966244000914424,0.35912926104084786,0.3508186372955116,0.4015209287333995,0.381339003581319,0.3814618868770663,0.3232582252805884,0.3455483710238126,0.35897256311239795,0.10308059394224603
0.2873279941437863,0.2971137465787348,0.30144744791211436,0.26827820546554076,0.2709416438956887,0.3071869091551648,0.2870430261466372,0.2843940924072099,0.24222714622911162,0.25572150386631864,0.2715105818983867,0.04078359157089963
0.19492561035378503,0.21370851081087092,0.20879193839554328,0.1811420238635975,0.19305221226323752,0.21590877044126847,0.1951413570599292,0.19005778688672387,0.1642796012237633,0.1690680594606997,0.1866613775884469,-0.019992093923778494
0.10632520153623498,0.1342063002885245,0.12000283547239694,0.09912023604701803,0.11826729821819158,0.1290698620486652,0.10695713868749074,0.09983939762932356,0.0906439796282444,0.08692838978363437,0.10568754566800077,-0.07837776159202445
0.022768941137947453,0.059765561676938965,0.03633023626770019,0.023500803244990036,0.04762620761969419,0.047950801098287366,0.023721139653237588,0.015026158674895426,0.02245296914250623,0.010540751861205257,0.02975987755251596,-0.13356479340244415
-0.054594867696956255,-0.008546826531093538,-0.041070628899161875,-0.044542574561305164,-0.017909403634003458,-0.026270527624957737,-0.053428245161291694,-0.06319388921049957,-0.039256469745639615,-0.05895869223110375,-0.04004263941249639,-0.18480465424201278
-0.12471314678867773,-0.06978330049107102,-0.11114147931582001,-0.1043005032086206,-0.07745567656833319,-0.09257314879641013,-0.12344542083295644,-0.13373963369540162,-0.09374021092547091,-0.12065709882531073,-0.10275260862452883,-0.2314089039023443
-0.18691022068499466,-0.12357752049178379,-0.17322452041432926,-0.15584063359026998,-0.13039216085931912,-0.15064983818140315,-0.1856182417288647,-0.19603066588726886,-0.14098108227475806,-0.17442064091888454,-0.15795215546091632,-0.27287436972812507
-0.24121401658360073,-0.17004643390092766,-0.22735996685624027,-0.19936246673627517,-0.17670770251135484,-0.20064779019887072,-0.239949538115366,-0.25014966167376396,-0.18114149388843673,-0.22041274829122806,-0.20574833298969128,-0.3091764210653286
-0.28778318029197203,-0.209362797257607,-0.2737103456843814,-0.2351144741148008,-0.21652989134162168,-0.2427670254420974,-0.28659327052579886,-0.296273410980998,-0.21442622451426788,-0.25884270568954654,-0.24631101949552975,-0.34041265929963965
-0.32681952650246704,-0.2417408449354386,-0.312481756460784,-0.2633940976321536,-0.2500221712257841,-0.27725386653517314,-0.3257459911989731,-0.3346240306339888,-0.24108242155283646,-0.2899653772299937,-0.2798517868299458,-0.3667084872377946
-0.3585680387923268,-0.26743628914255196,-0.3439238712666818,-0.2845477496327832,-0.2773838400979913,-0.3044009381329939,-0.35764684407917025,-0.3654689643566621,-0.2613996010575523,-0.3140812063976737,-0.30662390041129245,-0.38821710910758267
-0.38331686962367606,-0.2867463199215901,-0.36832993470251185,-0.29897081289928157,-0.29885004995087616,-0.32454716692126195,-0.38257756481614374,-0.3891209827718509,-0.27570964773465007,-0.33153621604663985,-0.3269223192247618,-0.4051195305578457
-0.4013973403435217,-0.3000096051497084,-0.38603676388791364,-0.30710764065238344,-0.31469180683555587,-0.33807778161648533,-0.4008624807651185,-0.40593818340129595,-0.2843868149431887,-0.3427220083998951,-0.3410836958223843,-0.41762455865847725
-0.4131839411837537,-0.30760629053857547,-0.3974247484617301,-0.3094515565509658,-0.3252159708616314,-0.34542431296597814,-0.4128685109867913,-0.41632399066564535,-0.28784772469505226,-0.34807576504939236,-0.34948637632302926,-0.4259688019004238
-0.41909433126114504,-0.30995799963437254,-0.4029178505820058,-0.30654485469204856,-0.3307652561971881,-0.3470645937478608,-0.41900516624733036,-0.42072715588445453,-0.2865513676549489,-0.3480802469560333,-0.352550400412405,-0.43041667019568414
-0.41958933857735115,-0.30752783381779414,-0.4029836049259896,-0.29897879961079393,-0.33171823106879506,-0.3435227587710592,-0.41972454901837575,-0.4196417572761868,-0.28099910314041204,-0.34326379444967,-0.35073750134305803,-0.4312603748773094
-0.415172960018911,-0.30082037230404707,-0.39813311869013235,-0.2873936262805065,-0.3284893177615058,-0.3353692448753055,-0.4155213534770392,-0.41360719995821277,-0.2717346591217995,-0.33420032722910387,-0.34455110593437455,-0.42881992869940283
-0.4063923613572458,-0.2903816721428517,-0.3889210715900874,-0.27247854011263384,-0.3215287926188573,-0.32322079093113776,-0.40693286550590435,-0.4032082159468103,-0.2593441322222934,-0.321509344362086,-0.3345363345725784,-0.4234431458371205
-0.39383787724865993,-0.2767992682184411,-0.3759457158607119,-0.2549717169567659,-0.31132278604287134,-0.30774043783990024,-0.39453896269302596,-0.38907486415716547,-0.24445598771790117,-0.3058559242853166,-0.32128000121073313,-0.41550564188667083
-0.3781430112343406,-0.26070217324956096,-0.3598488762560648,-0.2356603031006349,-0.29839328249405317,-0.2896375285337434,-0.37896211433193094,-0.3718825304033709,-0.2277410595374546,-0.287950724804446,-0.3054106133687406,-0.40541083386531446
-0.3599844357403576,-0.24276087778947,-0.3413159500494088,-0.21538041527011612,-0.28329812049139247,-0.2696677079756231,-0.3608673814216176,-0.35235192739842736,-0.20991255026260983,-0.268549983094074,-0.2875983721333411,-0.39358994021136434
-0.3400819920776644,-0.2236873502259401,-0.3210759070332089,-0.19501714062922684,-0.26663099261236256,-0.24863292315930138,-0.3409624166665563,-0.331249094754243,-0.19172603112784817,-0.24845551569775,-0.26855517215811486,-0.38050198078418584
-0.319198690442096,-0.2042350367812558,-0.29990128951913286,-0.17550260951358004,-0.24902144549292116,-0.22738142310934664,-0.31999746447668864,-0.3093853989816335,-0.17397944202047524,-0.2285147185279727,-0.24903460166347938,-0.3666337768641973
-0.29814070991437164,-0.18519886151221435,-0.2786082123380516,-0.1573645705095027,-0.23113487982751027,-0.2068077588811332,-0.2987653609674283,-0.28761753349032154,-0.1573606244570314,-0.2095856604569615,-0.2298319424366918,-0.3524999511528686
-0.2777571616278662,-0.16727202948488157,-0.25805469309518003,-0.14060304084580025,-0.213672550369055,-0.18754613328673303,-0.2781015339596605,-0.2668222193432134,-0.14193744730386576,-0.1919614032649068,-0.21168953684057576,-0.33864292777272265
-0.2586054763190462,-0.15054471984006518,-0.2387593462920071,-0.1252620035548597,-0.1972037751066462,-0.1696247648756025,-0.2586426716445812,-0.24735206482027222,-0.12774489392891053,-0.1756591060602373,-0.19475443816375354,-0.3255376854299571
-0.2407202654289812,-0.13505640638052152,-0.22075284208496432,-0.11136674644276204,-0.18179012756541474,-0.1530929169380054,-0.2404431669298593,-0.22923366862311967,-0.11481217958245499,-0.16071808088386874,-0.1790606393299989,-0.3132578874119196
-0.22414994587285542,-0.12084065285133437,-0.2040835028230428,-0.09892386208928357,-0.16747275002899034,-0.1379831981872438,-0.22355315304560372,-0.21251259342586434,-0.10315258118244788,-0.14716072118662793,-0.16464379730197884,-0.3018342301169895
-0.20892752216986463,-0.1079159409930301,-0.18878407258759036,-0.08792124784789472,-0.1542828021449092,-0.12431126683436511,-0.20800870002440092,-0.19721810000803053,-0.09276343731449666,-0.13499250182925293,-0.1515244598345731,-0.29129278426539645
-0.19507058644321687,-0.09628567054157772,-0.17487171719231218,-0.07832810584576082,-0.14223869854435608,-0.11207583058816215,-0.19383071480632366,-0.18336314725455916,-0.08362614823186788,-0.12420197908239267,-0.13970806547487435,-0.2816497597919095
-0.18258131842013178,-0.08593815922838893,-0.16234802418327055,-0.07009494298374164,-0.13134610884216466,-0.10125864665517331,-0.18102494123893118,-0.17094439215580745,-0.07570617585548677,-0.11476079062660707,-0.12918494356218793,-0.27291150584583673
-0.1714464854318412,-0.0768466427803179,-0.15119900283888488,-0.06315357093639173,-0.12159795763681704,-0.09182452173968242,-0.16958196007726878,-0.1599421898075488,-0.06895304377393785,-0.10662365555236726,-0.1199303142280323,-0.26507451079102573
-0.16163744241358885,-0.06896927491966169,-0.1413950841699318,-0.05741710615196025,-0.11297442451044427,-0.08372131204371887,-0.15947718898386845,-0.150320593410973,-0.06330033724346439,-0.09972837436005542,-0.11190428839613846,-0.258125402205863
-0.1531101319046304,-0.06224912736415935,-0.13289112091954491,-0.05277996985239083,-0.10544294402882584,-0.07687992326705731,-0.15067088252874813,-0.14202735427268606,-0.0586657031879686,-0.09399582895996463,-0.10505186778245042,-0.2520409468832745
-0.14580508404823347,-0.056614189826993316,-0.1256263875632153,-0.04911788803332171,-0.09895820574139026,-0.07121431060721825,-0.1431081321894125,-0.1349939218047104,-0.05495085019901174,-0.08932998267229914,-0.09930294489512494,-0.24678805083072536
-0.13964741659167756,-0.05197737001678812,-0.11952458030879089,-0.04628789146408605,-0.09346215418121458,-0.06662147875946722,-0.1367188663508524,-0.12913544352448483,-0.05204154853581395,-0.08561788022717412,-0.09457230303453158,-0.2423237592702199
-0.13454683488625432,-0.048236493637611205,-0.11449381709647692,-0.04412831568771124,-0.0888839888650244,-0.06298148191681563,-0.13141785030554493,-0.12435076505486428,-0.04980763012525424,-0.08272964776461599,-0.09075961629325305,-0.23859525663830183
-0.1303976318872671,-0.04527430438897252,-0.11042663759883595,-0.04245880102091959,-0.08514016429319432,-0.060157423770020105,-0.12710468625345364,-0.12052243012412017,-0.04810298856187083,-0.08051849283456199,-0.08774944955608445,-0.23553986658605386
-0.1270786881540316,-0.042958463965824645,-0.10720000322078736,-0.04108029255412793,-0.08213438994974742,-0.057995457507582934,-0.12366381330202848,-0.11751668056594,-0.04676557910786082,-0.07882070439686051,-0.08541125850003398,-0.23308505197909815
-0.12445349923655034,-0.04114155194170177,-0.1046752934064494,-0.03980859669985657,-0.07975763578311593,-0.05632477214887493,-0.12096449498985644,-0.11518343774652279,-0.04561743225364359,-0.07745566132633887,-0.08359939902624744,-0.23114839451977676
-0.12237076349193804,-0.039661063260464764,-0.10269822637069223,-0.03866020546574443,-0.0778882498429452,-0.054957299203867584,-0.11886055149939012,-0.11335590392331904,-0.04454637819396612,-0.07622919387108547,-0.08215332970299567,-0.22963715736595358
-0.12066437403208241,-0.03833940827066087,-0.10109886018501503,-0.03762450736284347,-0.07639195666861856,-0.053704088489033366,-0.11719036332529435,-0.11185056770591115,-0.043587967445232405,-0.07509972978509791,-0.08089760899246161,-0.2284482911225825
-0.11915283734900212,-0.03709237446164872,-0.09969167117730299,-0.036677332094372565,-0.07512174094161604,-0.05257047794397591,-0.1157771361270803,-0.11047210860833159,-0.04272211649886474,-0.0740872693687395,-0.07970257508702723,-0.2274688664297162
-0.11768847064224436,-0.03596104173477567,-0.09834554044378153,-0.0357962761794664,-0.07392518753358401,-0.051561636156777536,-0.11444775979335328,-0.10919511311058452,-0.04192880695806218,-0.07316969084387244,-0.07861401275315394,-0.22657670512444683
-0.11632094047291758,-0.034926055431832366,-0.09711483517251676,-0.03496070295317532,-0.07280140107526142,-0.05065555844419926,-0.11322370414205847,-0.10804393562571163,-0.04118946436786266,-0.07232634360747323,-0.07761785512010912,-0.22574225160167508
-0.1150418069673038,-0.03396915410672147,-0.09598470124029224,-0.03415174256646544,-0.071766395945238,-0.04983164809676744,-0.11211217687245432,-0.10699754614017917,-0.040486958215142865,-0.07153804823163172,-0.07669562041543523,-0.22498984895492347
-0.11383294070191097,-0.03307329954379102,-0.09493611470109814,-0.03335229198621867,-0.07080458539344242,-0.04907071637877348,-0.1110942952507995,-0.10603618350118259,-0.03980560192861826,-0.07078709646355197,-0.07583003725525,-0.22430675556293497
-0.11267737690681101,-0.032222676757834044,-0.09395123563264668,-0.03254701499523264,-0.06990132802764348,-0.04835498252827437,-0.11015230866252017,-0.10514135541664633,-0.03913115287884288,-0.07005725122555188,-0.07500504464424762,-0.22368095417720174
-0.11155931546563955,-0.03140269399408902,-0.09301340813637204,-0.03172234219222057,-0.06904292781344984,-0.04766807375709209,-0.10926959861220986,-0.10429583845522443,-0.038450812378209694,-0.06933374661506303,-0.0742057919756979,-0.223101151921965
-0.11046412091559613,-0.030599982728239467,-0.09210716033743073,-0.030866470991811636,-0.06821663407431006,-0.046995025250814115,-0.10843067872362967,-0.10348367804629943,-0.037753225680950166,-0.06860328790463073,-0.07341863903144645,-0.22255678029421522
-0.10937832244744392,-0.029802397666414085,-0.09121820438470103,-0.029969365624550708,-0.06741064149151262,-0.046322280168793,-0.10762119473970826,-0.10269018847998349,-0.03702848198313477,-0.06785405154191464,-0.07263115598191475,-0.22203799516369205
-0.10828961390550997,-0.02899901674518702,-0.09033343645078333,-0.029022757136898166,-0.06661409010418613,-0.04563768964414662,-0.10682792452254172,-0.101901952907118,-0.03626811442267249,-0.0670756851496877,-0.07183212338610034,-0.22153567677288435
-0.10718685378768528,-0.028180141131577338,-0.0894409367320001,-0.028020143391230646,-0.06581706530929898,-0.044930512783758376,-0.10603877805339369,-0.1011068233392731,-0.035465100079311064,-0.06625930752583717,-0.07101153219157649,-0.22104142973703003
-0.10606006524542451,-0.027337295223049587,-0.08852996944839561,-0.02695678906583996,-0.06501059786165943,-0.044191416668276536,-0.1052427974326953,-0.10029392064874844,-0.03461385997463709,-0.06539750864336387,-0.07016058373449227,-0.22054758304411637
-0.10490043608374615,-0.026463226647513285,-0.08759098284373656,-0.025829725654933963,-0.06418666387391593,-0.04341247635211496,-0.1044301568800451,-0.09945363456857279,-0.03371025907207597,-0.06448434965038252,-0.06927168973957273,-0.22004719005487963
-0.10370031876123251,-0.02555190626332335,-0.08661560918551142,-0.02463775146863626,-0.06333818481655663,-0.04258717486345254,-0.10359216273420913,-0.09857762369250382,-0.032751606276891526,-0.06351536287012176,-0.0683384723201188,-0.21953402850280537
-0.1024532303900297,-0.024598528159279757,-0.0855966647649308,-0.023381431632986047,-0.062459027517909826,-0.041710403204233804,-0.10272125345312108,-0.09765881547502864,-0.03173665443618656,-0.062487551800924086,-0.06735576397800722,-0.21900260049412829
-0.10115385273584765,-0.023599509654627867,-0.08452814989692725,-0.022063098089938542,-0.06154400416414359,-0.04077846035016812,-0.10181099961388197,-0.0966914062313635,-0.030665600338902456,-0.06139939111624589,-0.0663196076036906,-0.21844813250783227
-0.09979803221796023,-0.02255249129905803,-0.08340524892015538,-0.02068684959736433,-0.06058887229926606,-0.039789053250730316,-0.10085610391276052,-0.09567086113745357,-0.029540084715819544,-0.060250826664657114,-0.0652272564761974,-0.2178665753956503
-0.09838277990920476,-0.02145633687270607,-0.08222433019699198,-0.019258349382977893,-0.05959033482512512,-0.03874129682916057,-0.09985240116519274,-0.09459391422997346,-0.028363192239556717,-0.05904327546984204,-0.064077174263132,-0.21725460438206476
-0.0969062715359827,-0.020311133386152792,-0.08098294611353561,-0.01777273019030243,-0.0585460400014089,-0.03763571398246436,-0.09879685830578214,-0.09345856840632676,-0.027139443932053,-0.057779625730598354,-0.06286903502067469,-0.21660961906430692
-0.09536784747825926,-0.019118191080424424,-0.07967983307960728,-0.016221864060823175,-0.057454581445645234,-0.03647423558141218,-0.09768757438830004,-0.09226409542464639,-0.025866579267862316,-0.056464236820837975,-0.061603723193581456,-0.21592974341235735
-0.0937680127695634,-0.017880043426992173,-0.07831491152874945,-0.014601500655795272,-0.05631549813320198,-0.03526020047054018,-0.09652378058568474,-0.09101103590379415,-0.024536686987796548,-0.05509670472268765,-0.06028333361518434,-0.2152138257689459
-0.09210843709698786,-0.016600447127772627,-0.0768892859182271,-0.012907502583933172,-0.05512927439728691,-0.033995944274598754,-0.09530584019004254,-0.08970119932336126,-0.023145748955970345,-0.05366793818969545,-0.05891117150739103,-0.2144614388495515
-0.09039195480118928,-0.015279278721384765,-0.0754052447290271,-0.011135845401410627,-0.05389733992894781,-0.03267266703419197,-0.0940352486126469,-0.08833766402366801,-0.021689855380172034,-0.052173237813561514,-0.05749014896805993,-0.21367287974240218
-0.08862256487638796,-0.013908829432040266,-0.07386626046585837,-0.009282617611860838,-0.05262206977707232,-0.03128421236261282,-0.09271463338393886,-0.08692211661450625,-0.020165204811863596,-0.050608078826917806,-0.05601358066777744,-0.2128491699084753
-0.08680230509371262,-0.012484593430971946,-0.07227181638876674,-0.007344020666376043,-0.05130667010205558,-0.02982527321162917,-0.09134707803766151,-0.0854463119923523,-0.018568104146180885,-0.0489680639509399,-0.05447613496662827,-0.21199205518149727
-0.08492443613344673,-0.011002231799291783,-0.07061415143481416,-0.005316368963507939,-0.049948950915099474,-0.028290684233231497,-0.08992745320043816,-0.08390416942186402,-0.016894968621933373,-0.0472489233953468,-0.05287336770339331,-0.21110146126682336
-0.08298429649914825,-0.009457538152563588,-0.06888799539725038,-0.0031960898492673236,-0.04854347212796892,-0.026675421779633193,-0.08844940460771464,-0.08229015858737863,-0.015142321821604394,-0.04544651485840127,-0.051200970827358354,-0.2101722871844004
-0.08097756464560811,-0.007846438640802698,-0.0670882429766844,-0.0009797236171244503,-0.04708615634783761,-0.024974603903270384,-0.08690770592605623,-0.0805989043767031,-0.013306795671350898,-0.04355682352690966,-0.04945477239831504,-0.209200697270133
-0.07890007379541641,-0.0061649919484757796,-0.06520994372533208,0.0013360764919912065,-0.045573058296391245,-0.023183490356801922,-0.08529728627189777,-0.07882518688111388,-0.011385130441003758,-0.0415759620762219,-0.047630736586560564,-0.2081829914917058
-0.07674781193896234,-0.00440938929450101,-0.0632483020470156,0.003754544289690848,-0.04400036480982769,-0.02129748259310969,-0.08361323021154304,-0.07696394139535732,-0.009374174744067406,-0.0395001706702315,-0.04572496367289768,-0.2071155736882488
-0.07451692183443429,-0.002575954432248295,-0.061198677197163966,0.006278800640126495,-0.04236439483885726,-0.019312123765297753,-0.08185077776116528,-0.07501025841764919,-0.007270885537719991,-0.037325816961375616,-0.04373369004863456,-0.20599495157033693
-0.07220370100781949,-0.0006611436495388246,-0.0590565832828126,0.008911853459990852,-0.040661599448702054,-0.017223098726693527,-0.08000532438680664,-0.0729593836496751,-0.00507232812281358,-0.03504939609063485,-0.04165328821558528,-0.20481773671999012
-0.06980460175290455,0.0013384542313544727,-0.05681768926260353,0.011656597718517157,-0.03888856181909645,-0.015026234030846783,-0.07807242100437878,-0.07080671799659015,-0.002775676143873855,-0.03266753068753367,-0.03948026678606913,-0.20358064459067352
-0.06731623113127504,0.0034261178537071703,-0.054477818946785425,0.014515815437479719,-0.03704199724428713,-0.012717497931530321,-0.07604777397966236,-0.0685478175670192,-0.0003782115891003712,-0.030176970870139964,-0.03721127048291114,-0.20228049450729713
-0.06473535097231552,0.0056049933263436005,-0.05203295099721349,0.017492175691193174,-0.03511875313303281,-0.010293000382739498,-0.07392724512830734,-0.0661783936730568,0.0021226752096338126,-0.027574594245065285,-0.03484308013944189,-0.2009142096662163
-0.06205887787320989,0.007878094223636318,-0.04947921892734941,0.020588234606513333,-0.03311580900860426,-0.007748993038692642,-0.07170685171583284,-0.06369431283026694,0.004729485576781663,-0.024857405907464644,-0.03237261269949742,-0.19947881713523125
-0.05928388319894098,0.01024830158550631,-0.04681291110226149,0.023806435362836095,-0.031030276508784645,-0.005081869253830502,-0.06938276645762735,-0.06109159675768337,0.007444612493122632,-0.022022538441036795,-0.02979692121741939,-0.19797144785358725
-0.05640759308229087,0.012718363917423278,-0.044030470738624886,0.02714910819209878,-0.028859399385869018,-0.0022881640828171738,-0.0669513175189483,-0.05836642237780964,0.01027034059576205,-0.019067251918024233,-0.02711319485805525,-0.1963893366319748
-0.05342738842384039,0.015290897190405201,-0.04112849590472091,0.03061847037877901,-0.02660055350666494,0.0006354457194611894,-0.06440898851492252,-0.05551512181661877,0.013208846178132097,-0.01598893389921277,-0.024318758896757536,-0.19472982215252943
-0.05034080489196991,0.01796838484101859,-0.03810373952043774,0.03421662625989499,-0.024251246852491807,0.0036921416978951634,-0.06175241851054604,-0.05253418240355363,0.01626219718999057,-0.012785099433931838,-0.021411074719384925,-0.19299034696883144
-0.04714553292285868,0.02075317777137846,-0.03495310935726999,0.03794556722500611,-0.02180911951918121,0.006884963697152706,-0.05897840202068401,-0.0494202466715263,0.01943235323742201,-0.009453391060054673,-0.018387739822301068,-0.1911684575059067
-0.04383941772048507,0.023647494349148368,-0.031673668038318906,0.04180717171621202,-0.019271943717077102,0.010216809861679057,-0.05608388901007094,-0.04617011235691909,0.022721165582836926,-0.005991578803998036,-0.015246487812375626,-0.18926180406022566
-0.04042045925662646,0.026653420407540148,-0.028262633038292198,0.04580320522815346,-0.016637623771035507,0.013690436635696766,-0.05306598489331042,-0.042780732399583604,0.026130377144972287,-0.0023975601807223203,-0.011985188406983689,-0.18726814079970427
-0.03688681227085952,0.02977290924531439,-0.024717376683504412,0.04993532030801152,-0.013904196120424452,0.017308458763205494,-0.04992195053487529,-0.039249214942841115,0.02966162249889118,0.0013306398062687748,-0.00860184743400575,-0.18518532576370317
-0.03323678627055981,0.03300778162678003,-0.021035426151876434,0.05420505655550837,-0.01106982931912428,0.021073349287982095,-0.04664920224910754,-0.035572823333482696,0.03331642787598297,0.005194868664927588,-0.005094606831828169,-0.18301132086302835
-0.02946884553090208,0.03635972578179429,-0.0172144634729359,0.05861384062290666,-0.008132824035527448,0.024987439553580702,-0.04324531180021848,-0.031748976121768954,0.03709621116396352,0.00919684641466288,-0.0014617446493426004,-0.18074419187993068
-0.02558160909486039,0.03983029740576323,-0.013252325527816765,0.06316298621500978,-0.005091613052538571,0.02905291920333295,-0.03970800640228859,-0.027775247061429992,0.04100228190687441,0.013338165586340048,0.002298324954053602,-0.1783821084681062
-0.021573850773024147,0.04342091965972378,-0.009147004049365363,0.06785369408933098,-0.0019447612675009543,0.03327183618023647,-0.036035168719290724,-0.023649365109830362,0.04503584130513958,0.017620291222296212,0.006187051708498225,-0.1759233441528378
-0.017444315858402164,0.04713296585531869,-0.004896751072854514,0.07268722103845883,0.0013091078371188123,0.03764598585637734,-0.03222486004514661,-0.019369378709291014,0.049198037675946965,0.022044576335668056,0.010205789942906131,-0.17336641807934436
-0.013191190084490528,0.050968020099964935,-0.0005003843051837697,0.07766535300776731,0.0046715370750363755,0.04217658091118531,-0.02827539471734961,-0.014934114697108147,0.05349012926194296,0.026612312897015763,0.014355908230401695,-0.17071049685383588
-0.008812628405354161,0.05492770730695929,0.004043017618117622,0.08278986396352518,0.008144061937079472,0.04686454227697447,-0.02418529683281097,-0.010342648826583112,0.05791333112411904,0.03132470738551125,0.018638644933201314,-0.1679549567992371
-0.004306937077183891,0.059013545241451394,0.008734219395415608,0.08806239948896455,0.011728100573033797,0.05171063704094929,-0.019953254574067915,-0.005594195866440071,0.062468753425023484,0.036182846086519296,0.023055093687657176,-0.16509927078304307
0.0003274228760585293,0.06322691913434318,0.013573830873455848,0.093485230147333,0.015424939018291596,0.05671549058999435,-0.015578111573595677,-0.0006881257887435707,0.0671573979835589,0.0411876877969194,0.027606212019546807,-0.16214301554413502
0.005091835662612181,0.06756908168208442,0.018562307047376644,0.09909382671071044,0.019235731193732477,0.06187958661077132,-0.011058866913739175,0.004376036230972525,0.07198015827495371,0.04634006382504777,0.03229282134414237,-0.15908587169283936
0.009987530722916835,0.07204115304667351,0.023699948060710175,0.10489931444174216,0.023161498905724262,0.06720326708971927,-0.0063946751267122,0.009598609813704475,0.07693781943076293,0.051640677990696514,0.03711560696621033,-0.1559276237109276
0.015015582729613336,0.07664412085565742,0.028986899205381774,0.11089091571741913,0.02720313184612224,0.07268673231305448,-0.001584846194597922,0.014979759376978978,0.0820491039128633,0.05709010662511447,0.04207511808001163,-0.15266815995161634
0.020176911587543405,0.08137884020213178,0.034423150921710374,0.11705787121782099,0.03136138759226984,0.07833004086677027,0.0033711544506515494,0.02051949413485308,0.08735438154678378,0.06268879857100693,0.04717176776930181,-0.14930747263956706
0.02547228243374947,0.0862460336447403,0.04000853879840848,0.12338943992611598,0.0356368916069982,0.08413310963663763,0.008473705927214428,0.026217668097914117,0.09284376564682874,0.06844228415324653,0.052405833007330385,-0.14584565787088657
0.030902305637475258,0.0912462912076753,0.04574274357258148,0.12987489912856032,0.04003013723862642,0.0900957138082043,0.01372303190340018,0.03207398007327998,0.09850500538052842,0.07441806905765702,0.057777454656841934,-0.1422829156131266
0.03646743680016501,0.09638007038067775,0.05162529112972855,0.1365035444144994,0.04454148572096125,0.09621748686679542,0.019119200597648756,0.03808797366459846,0.10432596813126213,0.08062369415552684,0.06328663747007497,-0.13861954970528384
0.04216797675546411,0.10164769611903715,0.05765555250374256,0.1432646896763666,0.049171166173297365,0.10250208719206114,0.024662124778531122,0.04425903727204813,0.110294639498258,0.08704245096040579,0.06893325008876271,-0.13485596785780038
0.048004071569218744,0.10704939544701084,0.06383274387690932,0.15014766710968389,0.05391927560041747,0.10896607795623661,0.030351561764748864,0.05058640409233779,0.11639912329659319,0.09365787756100785,0.07471702504413265,-0.130992681652563
0.053975712539475994,0.11259290404780452,0.07015592657990817,0.1571418272130622,0.058785778892591754,0.11560279102966041,0.036187113425134344,0.0570691521187066,0.12262764155719412,0.10045375862121089,0.08063801655183522,-0.12703030654290376
0.06008273619648393,0.11827932875587117,0.07662400709181208,0.1642365387882003,0.06377050882557861,0.12240232321829704,0.04216822617865081,0.06370620414092393,0.12896853452683615,0.10741412538005622,0.08670171801588175,-0.12296956185359982
0.06632482430269135,0.12410171249414614,0.08323573704008723,0.17142118893988584,0.06887316606062399,0.12935471011434782,0.04829419099439244,0.07049627614488228,0.1354102606681436,0.11452325565174916,0.0929046002123781,-0.11881127078087318
0.07270150385274814,0.130052980075046,0.08998971320059343,0.178685183075995,0.07409331914446173,0.1364499260962513,0.054564143391583705,0.07743599394368868,0.14194139665959005,0.12176567382565917,0.09923969618179292,-0.1145563603923913
0.07921188471189661,0.1361259382004689,0.09688346531559065,0.18601794490749204,0.07943040450931377,0.14367788432868295,0.06097706343958044,0.08451932123957338,0.14855063739549795,0.12912615086631882,0.10569988679146648,-0.11020586162726626
0.08585210184986253,0.14231327546179467,0.10391135295520748,0.19340891644843047,0.08488383680620681,0.15102843676255495,0.06753180163715689,0.09173978276615563,0.15522679598603875,0.13658970431342507,0.11227790073561174,-0.10576090929605539
0.09261685261315666,0.14860756233988393,0.11106708803424041,0.20084755801595164,0.09045345843087066,0.15849137413501665,0.07422473598008872,0.09909061453535942,0.16195880375723318,0.14414159828183837,0.11896631453531314,-0.10122199003150073
0.0995006152977999,0.15500125120507932,0.11834410399529158,0.2083233482302855,0.09613492313423248,0.16605642596945427,0.08104963267055668,0.10656476383741412,0.16873571025095072,0.15176734346158327,0.12575755253852766,-0.09658945020267813
0.1064975874096267,0.16148667631720448,0.1257355519048662,0.21582578401475078,0.10192265821402062,0.173713260575491,0.08799995916783657,0.11415488924085429,0.1755466832249101,0.15945269711784776,0.13264388692008372,-0.09186826523624478
0.11360168566428566,0.16805605382556468,0.13323430045337215,0.2233443805957546,0.10781092217919999,0.18145148504898664,0.09506894770278283,0.12185336059251993,0.1823810086526791,0.16718366309098412,0.13961743768168247,-0.08706384536607857
0.12080654598723918,0.17470148176894673,0.14083293595511984,0.23086867150279247,0.11379380474997347,0.18926064527203856,0.10224959527782905,0.12965225901755556,0.18922809072367436,0.17494649179650765,0.14667017265189677,-0.08218170445813316
0.1281055235137636,0.18141494007561854,0.14852376234832285,0.2383882085684484,0.11986522685778077,0.1971302259129803,0.10953466366698782,0.13754337691941163,0.1960774518431619,0.18272768022509853,0.1537939074861715,-0.07722746001043686
0.13549169258894928,0.18818829056332975,0.15629880119509745,0.24589256192839495,0.12601894064529856,0.20504965042638315,0.11691667941585046,0.14551821797984318,0.20291873263225635,0.1905139719425998,0.16098030566682398,-0.07220683315309383
0.1429578467677001,0.19501327693931111,0.1641497916814621,0.2533713200213935,0.1322485294664408,0.2130082810530547,0.12438793384158725,0.15356799715891073,0.20974169192792166,0.19829235709001886,0.1682208785030432,-0.06712564864828285
0.15049649881473393,0.20188152480027535,0.17206819061733902,0.2608140895892933,0.13854740788635897,0.22099541882003987,0.13194048303294778,0.1616836406949801,0.2165362067829709,0.20605007238352652,0.17550698513089016,-0.061989834890258395
0.15809988070458283,0.2087845416324158,0.18004517243655255,0.2682104956770323,0.14490882168144134,0.22900030354062026,0.13956614785025986,0.1698557861047221,0.22329227246606595,0.21377460111445784,0.18282983251329846,-0.05680542390535013
0.16575994362159244,0.21571371681140783,0.18807162919682993,0.27555018163263756,0.15132584783931333,0.23701211381431447,0.147256513925431,0.1780747821831123,0.2300000024617178,0.22145367314931136,0.19018047544007316,-0.051578551351962765
0.17346835795992246,0.2226603216024081,0.19613817057980135,0.28282280910722385,0.1577913945588379,0.2450199670268783,0.15500293166194706,0.18633068900343244,0.23664962847028687,0.22907526492974967,0.19754981652789158,-0.04631545652057643
0.1812165133235461,0.2296155091600545,0.20423512389099954,0.29001805805499464,0.16429820125011474,0.25301291935030407,0.16279651623487298,0.1946132779172686,0.24323150040798178,0.236627599472599,0.2049286062203033,-0.04102248233374634
0.1889955185262511,0.23657031452846683,0.21235253405986002,0.2971256267332422,0.17083883853448087,0.26097996574282134,0.17062814759085326,0.20291203155451248,0.24973608640686093,0.24409914636984917,0.21230744278772987,-0.035706075346103074
0.1967962015916384,0.24351565464124553,0.2204801636397214,0.3041352317023472,0.1774057082445107,0.26891003994889656,0.17848847044811045,0.21121614382336062,0.25615397281483177,0.25147862178865443,0.21967677232746477,-0.03037278574435252
0.20460910975312327,0.2504423283214731,0.22860749280782475,0.3110366078257786,0.18399104342401557,0.27679201449923274,0.18636789429644623,0.21951451991031498,0.2624758641956502,0.25875498847133227,0.22702688876367366,-0.02502926734727563
0.21242450945393485,0.25734101628171346,0.23672371936531386,0.31781950827009375,0.19058690832804404,0.2846147007107706,0.19425659339724183,0.22779577628018294,0.2686925833289217,0.2659174557353642,0.23434793384739416,-0.019682277605728694
0.22023238634711592,0.2642022811240115,0.24481775873723588,0.3244737045049391,0.19718519842288176,0.2923668486866874,0.2021445067834566,0.2360482406760763,0.2747950712101006,0.27295547947339577,0.24162989715653604,-0.014338677602643318
0.2280224452955233,0.27101656733989393,0.25287824397253983,0.3309889863030489,0.20377764038605173,0.3000371473163967,0.21002133825962935,0.24425995211941287,0.28077438705049046,0.2798587621532356,0.2488626160958814,-0.009005432053026176
0.23578411037182756,0.2777742013103687,0.26089352574407815,0.33735516174024655,0.21035579210631403,0.3076142242755502,0.21787655640187759,0.25241866090991505,0.28662170827724354,0.2866172528178571,0.25603577589708365,-0.00368960930395934
0.24350652485851348,0.28446539130592496,0.2688516723486061,0.34356205719544336,0.21691104268366607,0.3150866460260357,0.225699394557898,0.2605118286256106,0.2923283305333612,0.29322114708539676,0.26313890961866904,0.0016016186653999907
0.2511785512478793,0.29108022748653417,0.27674046970678123,0.3495995173506395,0.22343461242934212,0.3224429178159782,0.23347885084696604,0.26852662812283296,0.29788566767769425,0.2996608871491553,0.2701613981460356,0.0068609762438192985
0.2587887712420375,0.29760868190164796,0.2845474213631645,0.3554574051909236,0.22991755286581364,0.3296714836797397,0.2412036881599359,0.2764499435362199,0.3032852517849421,0.3059271617775967,0.2770924701914532,0.012081084187990735
0.2663254857529139,0.3040406084902002,0.2922597484862186,0.36112560200447275,0.23635074672678938,0.3367607264379186,0.248862434159241,0.28426837027871465,0.3085187331456534,0.3120109063143495,0.283921202294064,0.017254459622531314
0.2737767149022493,0.31036574308060627,0.2998643898683106,0.36659400738255254,0.24272490795721582,0.3436989676973514,0.2564433812788938,0.2919682150415664,0.31357788026622613,0.3179033026782057,0.2906365188198825,0.022373516039983048
0.2811301980215971,0.31657370339076246,0.30734800192570894,0.3718525392195169,0.24903058171327538,0.3504744678511104,0.2639345867244853,0.29953549579432803,0.3184545798689065,0.32359577936312084,0.2972271919617948,0.02743056330081242
0.28837339365232545,0.3226539890280467,0.3146969586985853,0.3768911337128085,0.255258144362389,0.35707542607850545,0.27132387247318596,0.30695594178485924,0.32314083689179063,0.3290800114382147,0.30368184173955903,0.03241780763341056
0.29549347954561583,0.3285959814893186,0.3218973518510144,0.3816997453629586,0.2613978034832135,0.3634899803450832,0.27859882527374463,0.3142149935393235,0.327628774488823,0.3343479205477705,0.30998893599980587,0.03732735163409344
0.30247735266246406,0.3343889441609187,0.32893499067097365,0.38626834697358636,0.267439597865644,0.36970620740262694,0.2857467966464895,0.32129780286219023,0.33191063402979787,0.33939167491123556,0.31613679041603776,0.042151194267102024
0.3093116291736796,0.34002202231866924,0.3357954020703425,0.3905869296514004,0.2733733975108119,0.3757121227891571,0.2927549028833274,0.32818923283623397,0.3359787751003582,0.3442036893232208,0.3221135684886288,0.04688123086460182
0.3159826311096331,0.34548422109621124,0.34246385502313725,0.39464548813949635,0.27918888809466236,0.38149569767373076,0.2996100227823372,0.3348738754872139,0.3398256759230959,0.3487766249510787,0.32790727866816505,0.05150926538407698
0.32247611344500116,0.3507639550982686,0.3489258601490463,0.39843372099035984,0.28487525336144837,0.3870452032096676,0.3062987513367246,0.3413364128976728,0.34344394196598615,0.35310338519684004,0.33350571554871034,0.05602726098259055
0.32877727519363387,0.3558490667102916,0.3551671494037834,0.4019410427547787,0.2904211880354391,0.39234919653550393,0.3128074016175134,0.34756160252652035,0.34682630559242644,0.35717711586543943,0.3388964622584876,0.060427329830149756
0.3348710346647742,0.36072726183927123,0.36117328215235983,0.4051568740589065,0.2958152050993233,0.3973961876196319,0.3191220495786209,0.35353494646082645,0.3499656177327375,0.36099120916821464,0.3440669473543009,0.06470149068375507
0.3407515006704493,0.3653861282816806,0.3669401846257157,0.40807065383198576,0.3010456487470266,0.4021746252166803,0.32522853594554346,0.3592551508976529,0.35285484753308866,0.3645393038916669,0.3490044472198258,0.06884165866833204
0.34641249825625,0.36981313572347374,0.37246156492474686,0.4106718393063465,0.30610069438371235,0.4066728968675152,0.3311124662153571,0.36471312022314184,0.3554870823554989,0.36781528539746133,0.3536960860656104,0.07283964527673077
0.35184065351910143,0.37399563574008626,0.37772483544778207,0.4129499060174076,0.31096834862578027,0.4108793288992392,0.33675921065671605,0.3698962852006291,0.35785552777783575,0.3708132856224269,0.3581288359290748,0.07668715836972628
0.3570233075208475,0.37792086179643564,0.38271813283128386,0.41489434780367707,0.3156364493008681,0.41478218642519216,0.3421580044149273,0.37479283607751623,0.35995350759381645,0.3735276830785566,0.3622895166745107,0.08037580217601792
0.36194851628825064,0.38157592924691996,0.3874303179498483,0.41649467680675073,0.32009266544785014,0.4183696733449507,0.3473081234179982,0.3793917225852704,0.36177446381300654,0.37595310285300687,0.36616479599308216,0.08389707729223037
0.3666050508129923,0.38494783533541904,0.3918509759162057,0.4177404234713131,0.3243246197941858,0.42162993234432844,0.3521988471052212,0.3836826539394241,0.36331195666082106,0.37808441660809833,0.36974118940282563,0.08724238068291279
0.3709823970516728,0.3880234591952942,0.3959704160812201,0.4186211365451371,0.32832906992925465,0.4245510448953759,0.3568192657022746,0.3876560988395762,0.36455966457852435,0.3799167425813149,0.3730062777616063,0.09040300568053886
0.3750707559258111,0.3907895618493885,0.39977967203388864,0.4191263830790845,0.3321020423249861,0.42712103125638073,0.3611591727661252,0.3913032854693907,0.3655113842232286,0.3814454455853051,0.3759582131202445,0.09337014198550758
0.3788610433218453,0.3932353302750423,0.40327050160134326,0.41924574842710505,0.3356352793185732,0.42932785047186683,0.3652090651850272,0.39461620149659776,0.3661610304678963,0.38266613700788,0.37859412282263444,0.09613498987943192
0.3823448900911324,0.39535908777051987,0.4064353868488495,0.4189688362462375,0.33892109047523566,0.4311594003725965,0.36896014317852327,0.3975875940729928,0.36650263640133873,0.38357467481201596,0.3809104299899995,0.09869548472731737
0.3855146420499477,0.39715980239627635,0.40926753407980615,0.41828526849660885,0.34195235258821993,0.4326035175755672,0.37240431029744436,0.4002109698344373,0.366530353328216,0.3841671635358521,0.38290405973176106,0.10104984019500989
0.3883633599794863,0.39863675562752976,0.41176087383574655,0.41717797234432713,0.344722509678798,0.4336472154063064,0.3755341734239087,0.4024805949008584,0.36623845076903705,0.38443995429269184,0.3845724391455372,0.10319374354934466
0.39088481962586086,0.39978962090634595,0.41391006089633725,0.4156232748359784,0.3472255729962694,0.43428743930375,0.37834304277132375,0.40439149487624876,0.36562131646016016,0.3843896447710019,0.3859134973171432,0.10512328288255368
0.39307351170010413,0.4006184636416411,0.41571047427937924,0.4136363681309122,0.34945612101795986,0.4345305887426169,0.38082493188438366,0.4059394548486669,0.36467345635379284,0.3840130792344135,0.3869256653205925,0.10683494711226559
0.39492464187816734,0.4011237412091792,0.4171582172408064,0.41123546453993626,0.35140929944922134,0.4343833550458701,0.38297455763907184,0.4071210193902372,0.36338949461799097,0.3833073485217217,0.387607876218095,0.10832562598150638
0.39643413080092005,0.40130630295157466,0.4182501172746872,0.40843850001466747,0.35308082122343276,0.43385261984070683,0.384787340242659,0.4079334925571491,0.3617641736366604,0.3822697900468842,0.3879595650600585,0.10959261005869834
0.3975986140741509,0.40116739017829006,0.41898372611322393,0.4052631341475313,0.35446696650199966,0.4329454550585603,0.38625940323370395,0.40837493788965873,0.35979235400955534,0.38089798779902373,0.38798066888508775,0.11063359073766095
0.398415442268568,0.40070863616563734,0.4193573197267523,0.4017267501717624,0.3555645826743531,0.43166912293509757,0.38738757348205444,0.40844417841208697,0.35746897210944073,0.3791897723424264,0.38767162671998523,0.11144666023761031
0.3988826809197977,0.3999320661567777,0.41936989832374216,0.39784645496140403,0.35637108435795184,0.43003107601022184,0.3881693811888448,0.4081407966328209,0.35478525479835876,0.37714322081654206,0.38703337957975026,0.11203031160315988
0.39899911052838516,0.3988400973617215,0.4190211863507969,0.3936390790313084,0.35688445339828073,0.42803895712807016,0.38860305988649857,0.4074651345443136,0.35174944565814825,0.3747566569359844,0.38606737046757994,0.11238343870431958
0.3987642265597948,0.3974355389573278,0.41831163249265396,0.3891211765371364,0.35710323886885115,0.4257005994370152,0.3886875464387268,0.40641829362308307,0.34837885711914635,0.37202865099053106,0.3847755443748689,0.11250533623649582
0.39817823944440944,0.3957215920873051,0.4172424096721843,0.3843090252753578,0.3570265570712005,0.42302402638966435,0.3884224810405289,0.4050021348297136,0.34469050685003677,0.36895801984512344,0.3831603482812081,0.112395699720493
0.39724207457753097,0.3937018498622112,0.4158154150503932,0.3792186266832511,0.3566540915348937,0.4200174517428604,0.38780820721819237,0.40321927860885504,0.3407011177578506,0.36554382693986665,0.3812247311543869,0.11205462550251107
0.3959573723193805,0.39138029735945207,0.41403327002641904,0.3738657058389042,0.35598609301752143,0.4166892795576803,0.38684577182929203,0.401073104889223,0.3364271179879649,0.36178538229002943,0.37897214395039147,0.1114826107541479
0.39432648799509734,0.38876131162328403,0.4118993202375351,0.36826571146121323,0.355023379504701,0.4130481041994368,0.3855369250626918,0.3985677530835985,0.33188464092410375,0.3576822424860451,0.3764065396134054,0.11068055347239765
0.3923524918947398,0.38584966166481155,0.40941763555914706,0.3624338159098833,0.35376733621007656,0.4091027103376773,0.3838841204385429,0.39570812208882883,0.3270895251883378,0.3532334372183979,0.37353237307580955,0.10964975247965142
0.3900391692732852,0.3826505084619887,0.4065930101047953,0.3563849151854285,0.35221991557531845,0.4048620729461838,0.381890514808285,0.3924998702858262,0.3220573146410843,0.34844436632135717,0.37035460125818226,0.10839190742369731
0.38739102035062994,0.37916940495961843,0.4034309622261545,0.3501336289291717,0.3503836372701237,0.40033535730297387,0.37955996835464567,0.38894941553956963,0.31680325838110707,0.3433342671341061,0.3668786830692995,0.10690911877771994
0.38441326031158896,0.3754122960693528,0.39993773451303183,0.34369430042324467,0.3482615881922159,0.3955319189902997,0.3768970445916404,0.3850639351991026,0.3113423107455167,0.33792288372561274,0.3631105794061335,0.10520388784030159
0.3811118193058959,0.3713855186696933,0.39612029379336927,0.3370809965905878,0.345857422467345,0.39046130389464817,0.37390701036457324,0.3808513660975353,0.30568913130977043,0.3322295510392278,0.35905675315385516,0.10327911673542031
0.3774933424482037,0.3670958016059901,0.3919863311332425,0.3303075079949502,0.34317536144928773,0.38513324820674194,0.3705958358500355,0.3763204045520429,0.2998580848876721,0.3262731948926833,0.35472416918583194,0.10113810841245202
0.3735651898180838,0.3625502656904426,0.3875442618368604,0.3233873488408905,0.34022019371984713,0.37955767842153787,0.3669701945559072,0.37148050636386654,0.29386324153137217,0.32007233197809387,0.35012029436362857,0.09878456664616869
0.3693354364600265,0.35775642370209954,0.3828032254465665,0.3163337569737758,0.33699727508885247,0.3737447113382282,0.36303746332135634,0.3663418868183136,0.28771837653136795,0.31364506986195617,0.3452530975370076,0.09622259603673956
0.36481287238344107,0.3527221803868581,0.3777730857428375,0.3091596938797816,0.3335125285941603,0.36770465406024,0.3588057223168386,0.3609155206847563,0.2814369704165031,0.30700910698514833,0.3401310495439284,0.09345670200973093
0.36000700256265566,0.34745583245746575,0.37246443074428437,0.3018778446858928,0.3297724445016531,0.3614480039952353,0.3542837550440981,0.3552131422166332,0.27503220895396807,0.3001817326629309,0.33476312321054824,0.09049179081610553
0.3549216272061208,0.3419660685935177,0.36688671965236014,0.294500618159903,0.3257840803052399,0.3549854488551113,0.3494810483361668,0.3492472451514481,0.26851698314930006,0.29317982708494655,0.3291587933512211,0.0873331695322231
0.34953893211728443,0.3362619694414591,0.3610244700307984,0.28704014671041433,0.3215550607268568,0.3483278666559998,0.3444077923573647,0.343030339092814,0.2619038892463827,0.2860198613152197,0.32332803676849897,0.0839865460598404
0.34387268006072563,0.33035300761458414,0.35488609005186444,0.2795082863868385,0.3170935777164655,0.3414863257182677,0.3390748806033001,0.33655313791396335,0.25520522872744655,0.278717897292157,0.31728133225313043,0.08045802912611076
0.3379407995319931,0.32424904769303575,0.3484904326267351,0.27191661687939506,0.31240839045205526,0.334472084666517,0.3334939099008689,0.3298225916193827,0.24843300831306844,0.2712895878285471,0.31102966058406206,0.07675412828358481
0.33176085138994715,0.3179603462238065,0.3418559747014616,0.2642764415191134,0.30750882533964086,0.3272965924295847,0.3276771804082555,0.3228577229378974,0.2415989399621721,0.2637501766115605,0.3045845045284374,0.07288175391020943
0.32535002885675973,0.31149755172073745,0.33500081725697,0.2565987872778308,0.3024047760132644,0.3199714882405426,0.32163769561493233,0.315677140406563,0.23471444087202817,0.2561144982027499,0.2979578488415971,0.0688482172093289
0.3187251575179144,0.3048717046645191,0.3279426853090607,0.2488944047681942,0.297106703334994,0.3125086016366975,0.31538287665267645,0.30829903837066447,0.22779063347825337,0.24839697803805022,0.2911621802670801,0.06466123020968423
0.3119026953222065,0.2980942375026913,0.3206989279084087,0.24117376824365883,0.2916256353949248,0.3049199524595911,0.30890508903024094,0.3007411969837168,0.2208383454548113,0.24061163242777772,0.2842104875366215,0.06032890576541299
0.30489873258174327,0.29117697464964243,0.3132865181405639,0.2334470755984891,0.28597316751117785,0.2972177508550003,0.30221955669799927,0.29302098220746453,0.2138681097140125,0.23277206855663163,0.2771162613701545,0.05585975755605018
0.2977289919719434,0.28413213248661046,0.3057220531259506,0.2257242483677581,0.28016146222990096,0.2894143972729367,0.2953433892665758,0.2851553458118823,0.20689016440651362,0.22489148448369242,0.2698934944758093,0.05126270008652694
0.2904088285315371,0.2769723193616821,0.2980217540198674,0.21801493172734746,0.27420324932526885,0.28152248246764716,0.28829329546919585,0.27716082537517356,0.19991445292131843,0.21698266914242298,0.2625566815499136,0.046547048687171896
0.28295322966257436,0.2697105355911398,0.2902014660110982,0.2103284944943446,0.2681004867983345,0.2735547874965305,0.2810855831616299,0.2690535442833209,0.19295062388544973,0.20905800234089753,0.25512081927744246,0.04172251951344919
0.27537681607598585,0.2623603468460666,0.2822764793320747,0.20267408015639582,0.26185465119042695,0.26552414429569143,0.27373615216294855,0.26084915353684435,0.18600798900838794,0.2011294843024004,0.24760146429739086,0.03679919593052598
0.2676938444059762,0.2549363635500435,0.27426103436877514,0.19506074796308454,0.2554799119847129,0.25744305018442615,0.26626047446087825,0.2525626708519551,0.1790954065258971,0.1932088173424101,0.24001489347159,0.03178743556975393
0.2599182077320455,0.24745372131254723,0.26616884843756844,0.18749733913569203,0.24899019639505213,0.24932407247119223,0.2586736139453679,0.24420864037542137,0.17222140199305658,0.18530731921537202,0.23237794067366943,0.02669796456207974
0.25206344616655746,0.23992785556815818,0.2580133146911519,0.17999247788534364,0.24239901718871598,0.24117998322090545,0.25099022965790263,0.2358011566751276,0.16539420360401405,0.17743589129559412,0.22470795837800908,0.021541898347207624
0.2441427363293695,0.23237456768805234,0.24980746495112668,0.17255452883021058,0.23571951425804546,0.2330237488855027,0.24322457864073366,0.2273538901302479,0.1586217440569625,0.16960502378234668,0.2170228057402707,0.016326920561006594
0.236168887203901,0.22481005100868498,0.24156395507485062,0.16519158023028416,0.22896447098758455,0.22486852622140194,0.2353905170586456,0.21888009692758334,0.15191166128839712,0.16182479774915964,0.20933604472765513,0.011051768259052476
0.22815434013688288,0.21725089083336005,0.23329506495455665,0.1579114439863652,0.22214631425506734,0.21672766228925666,0.22750150019902435,0.21039261906216425,0.14527129847315964,0.1541048851439444,0.20164569952562236,0.005725298832836426
0.22011116883835752,0.20971406443223023,0.22501269851735178,0.15072165564006224,0.21527711443141753,0.20861469445395459,0.2195705824718568,0.20190388433725087,0.1387077040244384,0.14645454878899428,0.1939615413649786,0.0003569589463151249
0.2120510793816792,0.20221694104229798,0.21672838372521805,0.14362947437379367,0.20836858538074912,0.20054335038461898,0.2116104174097309,0.19342590636433343,0.13222763159376835,0.13888264238098483,0.18629439129549485,-0.005044082170665481
0.2039854102035141,0.19477404929460815,0.20845327257501203,0.13664188301078622,0.20143208446036617,0.19252754805460773,0.20363325766783638,0.1849702845631318,0.1258375400710314,0.13139761049097332,0.17865469455320002,-0.010468932722369923
0.19592513210383972,0.18738275823796538,0.2001981410984646,0.1297655880150755,0.19447861252076268,0.1845813957415138,0.19565095502396349,0.17654820416159525,0.11954359358445593,0.12400748856439979,0.17105252056038137,-0.015908978347173443
0.18788084824594545,0.18004915691546866,0.1919733893621814,0.12300701949150637,0.18751881390562264,0.1767191920271653,0.18767496037850398,0.1681704361959033,0.11335166150061697,0.11671990292108547,0.1634975629255845,-0.02135588211756202
0.1798627941564325,0.17278109958515192,0.18378904146764288,0.116372331185732,0.1805629764518202,0.16895542579762507,0.1797163237544507,0.15984733751046482,0.10726731842443611,0.10954207075523416,0.15599913944361224,-0.026801584540132276
0.1718808377252138,0.16558613130023422,0.17565474555120342,0.10986740048421445,0.17362103148941946,0.16130477624319106,0.17178569429739754,0.15158885075791853,0.10129584419918183,0.10248080013543144,0.1485661920955264,-0.0322383035555915
0.16394447920551364,0.1584714879091206,0.1675797737840927,0.10349782841422492,0.16670255384167432,0.15378211285839577,0.16389332027553968,0.1434045043991328,0.09544222390646877,0.09554249000464476,0.14120728704864646,-0.03765853453875769
0.15606285121386823,0.15144409605540118,0.1595730223724147,0.09726893964384338,0.15981676182502896,0.14640249544200745,0.15604904907967349,0.13530341270320623,0.08971114786625883,0.08873313018022415,0.13393061465655007,-0.04305505029855929
0.1482447187301253,0.1445105731778521,0.15164301155714774,0.09118578248195854,0.15297251724911745,0.13918097847370609,0.1482623272231965,0.12729427574746624,0.08410701163686024,0.0820583013539012,0.12674398945907284,-0.048420901078035684
0.14049847909744467,0.1376772275104346,0.14379788561414508,0.08525312887826757,0.14617832541676412,0.1321178031336007,0.14054220034210713,0.11938537941747103,0.07863391601492802,0.07552317509178963,0.11965485018230872,-0.05374941455433684
0.13283216202229764,0.1309500580822962,0.1360454128541342,0.07947547442327733,0.13944233512398282,0.12520928306590628,0.1328973131950054,0.1115845954070075,0.07329566703546343,0.0691325138343853,0.11267025973860956,-0.059034195838723304
0.12525342957446725,0.12433475471776899,0.12839298562271786,0.07385703834830296,0.13277233865997798,0.11845719988140352,0.12533590966309205,0.10389938121809326,0.06809577597181497,0.06289067089656582,0.1057969052265856,-0.06426912747656643
0.11776957618704768,0.11783669803637158,0.12084762030037238,0.06840176352546823,0.12617577180714368,0.111863162581835,0.11786583275016937,0.0963367801609748,0.06303745933567728,0.056801590467591194,0.0990410979311047,-0.06944836944734803
0.11038752865644604,0.11146095945280748,0.11341595730244952,0.06311331646770652,0.11965971384106419,0.10542860755990381,0.11049452458264086,0.08890342135412907,0.05812363887709197,0.050868807611103205,0.09240877332329357,-0.07456635916466073
0.10311384614237998,0.10521230117696621,0.10610426107917523,0.057995087328759166,0.11323088753051361,0.09915479859927503,0.10322902640951054,0.0816055197242621,0.05335694158444715,0.045095448265125716,0.08590549106053597,-0.07961781147620794
0.09595472016787952,0.09909517621392241,0.09891842011565008,0.05305018990317709,0.10689565913745627,0.09304282687457462,0.0960759786023843,0.07444887600631044,0.048739699684477826,0.039484229242064836,0.07953643498647468,-0.08459771866380345
0.08891597461928588,0.09311372836393687,0.0918639469318492,0.04828146162631956,0.10066003841704654,0.08709361095138982,0.0890416206554689,0.0674388767434395,0.04427395064226531,0.034037458228708135,0.07330641313101019,-0.08950135044337187
0.08200306574625242,0.08727179222245544,0.08494597808262266,0.04369146357435452,0.09452967861762854,0.08130789678626907,0.08213179118557226,0.060580494287044845,0.03996143716123767,0.028757033786225954,0.06721985771030096,-0.09432425396494845
0.07522108216174392,0.08157289318010974,0.07816927415769434,0.03928248046425976,0.08850987648073644,0.0756862577267221,0.07535192793210362,0.05387828679675207,0.03580360718316958,0.023644445350169928,0.0612808251267639,-0.09906225381267915
0.06857474484203709,0.07602024742271701,0.07153821978166337,0.03505652065382074,0.0826055722410949,0.07022909451122,0.06870706775707304,0.047336398240416064,0.03180161388818283,0.01870077323047451,0.05549299596907374,-0.10371145200482058
0.062068407126720286,0.07061676193127987,0.0650568236140035,0.03101531614163234,0.07682134962661814,0.06493663526919523,0.062201846645092276,0.040958558394121616,0.027956315694745052,0.013926688611455226,0.049859675012163415,-0.10826822799374017
0.05570605471869348,0.06536503448198658,0.05872871834906247,0.02715906925987012,0.07116143585841046,0.05980893552104105,0.0558404997033735,0.03474808284218329,0.024268276259670932,0.009322453551810687,0.04438379121722399,-0.11272923866591547
0.049491305684168214,0.06026735364621118,0.052557160716062944,0.023479847317634757,0.06562970165076605,0.05484587817811234,0.0496268611617308,0.028707872977145128,0.020737764478122162,0.004887920984620654,0.039067897731704646,-0.11709141834193534
0.04342741045266788,0.0553256987905129,0.0465450314791025,0.019971926549230908,0.060229661211169586,0.05004717354272518,0.043564364372579156,0.022840415999781188,0.017364754483606495,0.0006225347173473518,0.033914171889312415,-0.12135197877649893
0.0375172518170277,0.05054174007663682,0.04069483543715289,0.01663043622992886,0.05496447224029553,0.04541235930815671,0.03765604181093444,0.01714778491909529,0.014149302046265341,-0.003474670568165127,0.028924415210012603,-0.1255084091584162
0.03176334493339437,0.04591683846151358,0.03500870142406038,0.013450577639965006,0.04983693593200804,0.04094080055864562,0.03190452507441428,0.011631638552320871,0.011089106260092983,-0.007405069315690332,0.02410005340002898,-0.12955847611060775
0.02616783732122637,0.04145204569725916,0.02948838230854595,0.010427624064542132,0.044849496973361665,0.03663168976939151,0.026312044883236727,0.006293221524921129,0.008179462936064301,-0.011170445094620502,0.019442136351842648,-0.1335002236901048
0.020732508863294023,0.0371481043311753,0.02413525499420548,0.007556920793829293,0.04000424354460092,0.03248404680655566,0.020880431080221487,0.0011333642705889837,0.005415712514375431,-0.014772990599965072,0.014951338144193228,-0.13733197338804926
0.015458771805679108,0.03300544770574932,0.018950320419508705,0.004833885122961903,0.03530290731916024,0.028496718927260318,0.015611112630789533,-0.0038475169687531593,0.002793266160893947,-0.018215307652351673,0.010627957042078837,-0.14105232412969376
0.010347670757775316,0.02902419995865416,0.01393420355780078,0.0022540063520415828,0.030746863463664235,0.02466838077958908,0.010505117622962567,-0.008649420142952188,0.0003076057671597432,-0.021500407198026178,0.0064719154967548525,-0.14466015227440146
0.0053998826922879144,0.02520417602274786,0.009087153417300693,-0.00018715421386359296,0.026337130637927263,0.0209975344025865,0.005563073267363713,-0.013272757393626914,-0.0020457160496159576,-0.024631709308852598,0.0024827601457353865,-0.14815461161564628
0.0006157169452336281,0.021544881626074798,0.004409043041102484,-0.002493963264719437,0.02207437099495385,0.017482509226258706,0.0007852058972172422,-0.017718355054164907,-0.004271075946549609,-0.027613043182311923,-0.0013403381872077124,-0.151535133381013
-0.0040048847840586125,0.018045513291864046,-0.00010063049282541767,-0.004670715485525316,0.017958890180938547,0.014121462071573108,-0.003828659031651491,-0.021987453649724667,-0.006372779855086175,-0.030448647141504224,-0.00499858449204424,-0.15480142623219667
-0.008462348432948366,0.014704958338530971,-0.004442746071639762,-0.006721633556314313,0.0139906373352661,0.010912377150458324,-0.008279096940815708,-0.0260817078972348,-0.008355062980998765,-0.03314316863514698,-0.008493559572485869,-0.15795347626500322
-0.012757467575483551,0.011521794879676308,-0.008618558547623124,-0.008650868152153289,0.010169205090511089,0.007853066065804121,-0.012567084129247955,-0.030002861498200604,-0.01022208980438828,-0.0357003327928099,-0.011827220045986523,-0.1609915470093493
-0.01689140342240048,0.008494291824086024,-0.012629698738183226,-0.010462497943142541,0.006493829572437854,0.004941167811461475,-0.01669399777331912,-0.033745490071419464,-0.01197795407968418,-0.03811417086256087,-0.015001898343741831,-0.16391617942926212
-0.020865684821123692,0.0056204088757321035,-0.016477822783480662,-0.01216052959441649,0.0029633904000012736,0.002174148772242836,-0.020661615926799107,-0.03731036256993792,-0.013626678835644064,-0.04038676115242225,-0.018020302710689138,-0.16672819192287952
-0.024680624717041875,0.002897796533771814,-0.020159958347330618,-0.013748897766142982,-0.00042358931465411135,-0.00045069727607841193,-0.024472117520856776,-0.04070209670563343,-0.015172216375353384,-0.04252251751507277,-0.02088551720550803,-0.16942868032245015
-0.028333972817218674,0.0003237960925480598,-0.02367845285013595,-0.015231465113523473,-0.003668942966193624,-0.0029362491667672195,-0.028126774748555787,-0.043925250829242445,-0.016618448276226046,-0.044525774424345424,-0.02360100170061954,-0.17201901789433327
-0.03182961187896404,-0.002104560358410598,-0.02703791929838822,-0.016612022286793256,-0.006774860456092438,-0.00528555834212764,-0.0316177592377552,-0.04698432393035985,-0.01796918539000409,-0.04640078697522678,-0.026170591882187108,-0.17450085533899862
-0.03517186793682376,-0.0043905499343901136,-0.030242917124076747,-0.0178942879312214,-0.009743888192636182,-0.0075018488535022665,-0.03494706410077627,-0.04988375563743996,-0.019228167842757615,-0.048151730883857595,-0.02859849925011588,-0.1768761207910269
-0.038365013941662036,-0.006537758955490781,-0.033297952184688576,-0.01908190868711047,-0.012578285237183219,-0.009588517361272546,-0.03811933766465557,-0.05262792621779576,-0.020399065034884912,-0.04978270248753218,-0.03088931111805273,-0.17914701981910927
-0.04141326080654788,-0.008550097855996223,-0.036207464006522645,-0.020178461563758476,-0.015271256692998928,-0.011549118347449329,-0.041139160665517406,-0.05522116132103325,-0.02148547310118333,-0.05129772856714218,-0.033048004362180236,-0.18131603537568586
-0.04432058292539726,-0.01043209171082041,-0.03897557720577152,-0.02118750019887064,-0.017823228366883576,-0.013387075965740623,-0.044010950147785166,-0.05766782441040292,-0.022490865417368878,-0.052700957748944316,-0.035080213332503565,-0.18338592681558386
-0.047090729869654006,-0.012188860759530979,-0.04160611815246973,-0.02211255175747416,-0.020238344625065633,-0.015105703358216009,-0.04673896590647542,-0.05997231056649294,-0.023418595917962463,-0.053996647673589575,-0.03699221189292326,-0.18535972996180575
-0.04972739151548641,-0.013825845455381156,-0.04410285022278875,-0.022957073152530403,-0.022520698925458195,-0.01670847535716478,-0.049327401435904736,-0.06213895901123646,-0.024271945936365075,-0.05518898385563855,-0.03879065987299983,-0.18724075803427784
-0.052234204655381714,-0.015348795456438403,-0.04646948321839816,-0.023724449292034294,-0.024674323960076794,-0.018199039403915308,-0.051780387571221706,-0.0641720496054256,-0.025054126080305533,-0.05628207243080598,-0.04047979025541045,-0.1890294465457121
-0.05461475299814529,-0.016763769625585068,-0.04870967336646492,-0.024417993079014714,-0.026703191655039763,-0.019581215548835063,-0.05410199248840624,-0.06607580284871152,-0.025768276231841178,-0.05727994015596026,-0.04205348352100544,-0.19072154523297252
-0.05687256716890109,-0.01807713603051731,-0.050827023319653976,-0.025040945411534024,-0.028611213170568417,-0.020858996451329517,-0.056296221704269976,-0.06785437987960385,-0.02641746554735718,-0.05818653440912376,-0.04351473288344531,-0.19231972939420972
-0.059011124709091686,-0.01929557194374625,-0.052825082156127655,-0.025596475182688243,-0.03040223890098671,-0.022036547379843587,-0.05836701807645622,-0.06951188247547174,-0.027004692457567217,-0.05900572318947281,-0.044867782062703816,-0.19382695686233004
-0.061033850076477984,-0.020426063842597278,-0.0547073453795464,-0.02608767928060725,-0.03208005847472154,-0.02311820621186051,-0.06031826180343989,-0.07105235305254273,-0.027532884667512858,-0.05974129511733744,-0.0461167961175289,-0.19524613544635674
-0.06294411464513952,-0.021468901777884603,-0.0564772549190681,-0.02651758258845444,-0.03364840075430251,-0.024108483433902476,-0.06215377042452751,-0.0724797746659035,-0.028004899156563876,-0.06039695943420169,-0.047265861445443313,-0.1965801229314306
-0.06474523670547402,-0.02242012756645984,-0.05813819912934834,-0.02688913798442718,-0.03511093383636197,-0.025012062141530175,-0.06387729881985728,-0.07379807100949967,-0.02842352217841824,-0.060976346002703505,-0.04831898578274444,-0.19783172707880975
-0.06644048146419809,-0.023283371807197525,-0.05969351279054058,-0.027205226341756206,-0.03647126505163531,-0.025833798039343426,-0.06549253921039899,-0.07501110641613554,-0.028791469261102223,-0.061483005306634655,-0.04928009820450403,-0.1990037056258694
-0.06803306104434657,-0.024062227292906295,-0.0611464771082958,-0.0274686565287062,-0.03773294096496053,-0.02657871944098056,-0.06700312115795419,-0.07612268585747455,-0.029111385206969983,-0.06192040845094083,-0.05015304912456838,-0.20009876628610224
-0.0695261344852729,-0.024760214558153575,-0.06250031971376285,-0.027682165408575345,-0.038899447375278305,-0.02725202726911856,-0.06841261156515598,-0.07713655494403897,-0.029385844092704134,-0.06229194716172147,-0.05094161029555885,-0.20111956674911818
-0.07092280774264874,-0.02538078187926488,-0.06375821466358828,-0.027848417839695706,-0.03997420931563257,-0.027859095055473376,-0.06972451467546908,-0.07805639992521,-0.02961734926931514,-0.06260093378623019,-0.05164947480887069,-0.20206871468064447
-0.07222613368846478,-0.02592730527432417,-0.06492328243991612,-0.027970006675432844,-0.040960591053169564,-0.028405468940799518,-0.0709422720731899,-0.07888584768922777,-0.029808333362141858,-0.0628506012928742,-0.05228025709467426,-0.2029487677225256
-0.07343911211102962,-0.026403088503173907,-0.06599858995038844,-0.028049452764186217,-0.04186189608913851,-0.028896867674890393,-0.07206926268344631,-0.0796284657631911,-0.029961158270851353,-0.06304410327121468,-0.052837492921914156,-0.20376223349272343
-0.07456468971497064,-0.02681136306741501,-0.06698715052814488,-0.028089204949388873,-0.04268136715889164,-0.029339182616578016,-0.0731088027721982,-0.08028776231305798,-0.030078115169438625,-0.06318451393196689,-0.05332463939830986,-0.20451156958531702
-0.07560576012123374,-0.027155288210406362,-0.06789192393182271,-0.02809164006950748,-0.04342218623188368,-0.02973847773373338,-0.07406414594623673,-0.08086718614364527,-0.030161424506226928,-0.06327482810699958,-0.05374507497035513,-0.20519918357050287
-0.07656516386708315,-0.027437950917265596,-0.068715816345557,-0.028059062958042603,-0.0440874745116724,-0.030094836235898956,-0.07493848315318485,-0.08137012669862859,-0.03021323600386782,-0.06331796124933582,-0.0541020994233186,-0.20582743299459474
-0.07744568840610175,-0.02766236591486862,-0.06946168037898047,-0.027993706443528325,-0.04468029243591807,-0.030403757979020358,-0.07573494268149712,-0.08179991406054249,-0.030235628659340746,-0.06331674943315216,-0.05439893388124314,-0.20639862538002363
-0.07825006810819073,-0.027831475671849758,-0.0701323150672236,-0.027897731349532495,-0.04520363967638423,-0.03066726848410282,-0.0764565901604598,-0.08215981895078067,-0.03023061074395361,-0.06327394935377934,-0.054638720806946484,-0.20691501822533773
-0.07898098425956988,-0.027948150398601577,-0.07073046587091462,-0.02777322649465665,-0.04566045513893673,-0.030887378354987505,-0.07710642856019068,-0.0824530527295954,-0.030200119803342192,-0.06319223832770184,-0.05482452400202089,-0.2073788190052028
-0.07964106506277753,-0.028015188047275156,-0.07125882467617947,-0.027622208692536045,-0.04605361696354456,-0.031066045702596853,-0.07768739819163921,-0.08268276739609803,-0.03014602265747076,-0.06307421429255804,-0.05495932860683301,-0.20779218517040168
-0.08023288563667025,-0.028035314311779858,-0.07172002979464165,-0.02744662275183962,-0.04638594252427927,-0.031205176144934916,-0.07820237670658658,-0.08285205558825896,-0.030070115400631387,-0.06292239580714029,-0.055046041100524384,-0.20815722414783466
-0.08075896801642335,-0.028011182627783536,-0.07211666596342245,-0.027248341476269908,-0.04666018842931553,-0.03130662280708679,-0.07865417909764552,-0.08296395058290712,-0.029974123401444636,-0.06273922205139476,-0.05508748930101073,-0.20847599334051922
-0.08122178115353063,-0.027945374172712298,-0.07245126434514096,-0.027029165664563266,-0.0468790505209304,-0.03137218632121967,-0.07904555769826048,-0.08302142629573074,-0.029859701302858976,-0.06252705282642139,-0.05508642236498271,-0.20875050012759014
-0.08162374091580417,-0.02784039786575085,-0.0727263025279139,-0.0267908241104898,-0.04704516387550414,-0.031403614826581536,-0.07937920218270748,-0.0830273972812766,-0.02972843302215115,-0.06228816855447412,-0.055045510787905386,-0.2089827018642996
-0.08196721008737463,-0.02769869036784187,-0.07294420452535562,-0.02653497360285308,-0.047161102803519636,-0.03140260396950235,-0.0796577395660941,-0.08298471873295059,-0.0295818317509262,-0.06202477027896093,-0.054967346404018534,-0.20917450588201697
-0.08225449836869127,-0.02752261608168686,-0.07310734077657845,-0.026263198925490578,-0.04722938084956246,-0.031370796903392936,-0.07988373420435975,-0.08289618648301766,-0.029421339955116955,-0.06173897966444328,-0.05485444238633625,-0.209327769488229
-0.0824878623765217,-0.027314467151745434,-0.07321802814619212,-0.025977012857273437,-0.04725245079232118,-0.03130978428874621,-0.08005968779427529,-0.08276453700260136,-0.029248329374984793,-0.061432838996636936,-0.05470923324664743,-0.20944429996653965
-0.08266950564395205,-0.027076463464235576,-0.0732785299243042,-0.02567785617210633,-0.047232704644587085,-0.031221104293136077,-0.0801880393734434,-0.08259244740168431,-0.029064101025119044,-0.06110831118241135,-0.054534074835515575,-0.2095258545766703
-0.08280157862038703,-0.026810752647133913,-0.07329105582651999,-0.025367097638927902,-0.047172473653254325,-0.03110624259121809,-0.08027116532029824,-0.08238253542910796,-0.028869885194437298,-0.06076727974978977,-0.054331244342278484,-0.20957414055445947
-0.08288617867154956,-0.026519410070175095,-0.07325776199394252,-0.025046034021710215,-0.047074028299319684,-0.030966632364729175,-0.0803113793541057,-0.08213735947257263,-0.028666841446185212,-0.06041154884794955,-0.05410294029504884,-0.20959081511186314
-0.08292535007948143,-0.0262044388448524,-0.0731807509931725,-0.02471589007945928,-0.04693957829788302,-0.030803654302487604,-0.0803109325349632,-0.08185941855863783,-0.02845605861793662,-0.060042843247221714,-0.05385128256071379,-0.2095774854369545
-0.08292108404254266,-0.025867769824417308,-0.07306207181630828,-0.024377818566214557,-0.0467712725981467,-0.030618636600393195,-0.08027201326380008,-0.08155115235272159,-0.0282385548215937,-0.05966280833909129,-0.05357831234493501,-0.20953570869392404
-0.08287531867541179,-0.02551126160387994,-0.07290371988094602,-0.024032900231049266,-0.04657119938341615,-0.03041285496142741,-0.08019674728237693,-0.08121494115910115,-0.02801527744338656,-0.059273010136197325,-0.053285992192148864,-0.20946699202307958
-0.08278993900908599,-0.025136700520008475,-0.07270763703017956,-0.023682143818070527,-0.046341386071099465,-0.03018753259565278,-0.08008719767328612,-0.08085310592091242,-0.02778710314387358,-0.05887493527233238,-0.05297620598556615,-0.2093727925408462
-0.08266677699088064,-0.024745800651329707,-0.07247571153260043,-0.02332648606641896,-0.046083799312707466,-0.02994384022021361,-0.07994536485995188,-0.08046790822015047,-0.027554837857941116,-0.05846999100244315,-0.052650758947172326,-0.20925451733976633
-0.08250761148442985,-0.02434020381812865,-0.07220977808229785,-0.02296679171026889,-0.045800344993853964,-0.02968289605933532,-0.07977318660662971,-0.08006155027766894,-0.027319216794804146,-0.05805950520263023,-0.052311377637727384,-0.20911352348849968
-0.08231416826968617,-0.023921479582448748,-0.07191161779885881,-0.02260385347882831,-0.04549286823425545,-0.029405765844325173,-0.0795725380184071,-0.07963617495318069,-0.02708090443800522,-0.057644726370147996,-0.05195970995676614,-0.20895111803182323
-0.08208812004292046,-0.023491125248092073,-0.07158295822736802,-0.02223839209633917,-0.04516315338773129,-0.02911346281357141,-0.07934523154120285,-0.07919386574525743,-0.02684049454541555,-0.05722682362340491,-0.051597325142597565,-0.20876855799063124
-0.08183108641672238,-0.023050565860618526,-0.07122547333840777,-0.021871056282076726,-0.044812924042203606,-0.028806947712544075,-0.07909301696176775,-0.07873664679132954,-0.026598510149234148,-0.05680688670196292,-0.05122571377230547,-0.20856705036193535
-0.08154463391999983,-0.022601154207346926,-0.07084078352805834,-0.021502422750350136,-0.04444384301969727,-0.028487128793794614,-0.07881758140768388,-0.07826648286768673,-0.026355756110931213,-0.05638592596653827,-0.05084628776174819,-0.20834775211886453
-0.08123027599797931,-0.022144170817354168,-0.07043045561789725,-0.021132996210502398,-0.04405751237634015,-0.028154861816955718,-0.07852054934736519,-0.07778527938947712,-0.026113850905850104,-0.05596487239900092,-0.050460380365558714,-0.20811177021066482
-0.0808894730122057,-0.021680823961475554,-0.06999600285500034,-0.020763209366909747,-0.04365547340236265,-0.0278109500487419,-0.07820348259005722,-0.0772948824107081,-0.025873132734680462,-0.05554457760237469,-0.05006924617714459,-0.20786016156269987
-0.08052363224054246,-0.02121224965230509,-0.06953888491194067,-0.020393422918982745,-0.043239206622098146,-0.0274561442629485,-0.07786788028583697,-0.07679707862424588,-0.02563381216480472,-0.055125813800837246,-0.049674061128687635,-0.20759393307645035
-0.08013410787717147,-0.020739511644194485,-0.06906050788678905,-0.020023925561165137,-0.04281013179398286,-0.027091142740452878,-0.07751517892561337,-0.07629359536181553,-0.02539609625951682,-0.05470927383972032,-0.04927592249114478,-0.2073140416295145
-0.07972220103259323,-0.020263601433254598,-0.06856222430311429,-0.01965493398293456,-0.04236960791055567,-0.026716591269213694,-0.07714675234112685,-0.07578610059400098,-0.025160188578022956,-0.054295571185509275,-0.04887584887424708,-0.20702139407560752
-0.07928915973362653,-0.019785438257354036,-0.06804533310998277,-0.019286592868802382,-0.04191893319845837,-0.02633308314427077,-0.07676391170494942,-0.07527620293024519,-0.024926289175440985,-0.053885239925843584,-0.04847478022650044,-0.20671684724456219
-0.07883617892529553,-0.0193058690948478,-0.06751107968221082,-0.018918974898386075,-0.0414593451175089,-0.02594115916928179,-0.07636790553152395,-0.07476545161669675,-0.024694594601258557,-0.05347873476718224,-0.048073577832826786,-0.20640120794293415
-0.07836447461678825,-0.018825618661538448,-0.06696066573511654,-0.018552083595796333,-0.04099198394819281,-0.025541368020282982,-0.0759599605151465,-0.07425525191701031,-0.02446523728329742,-0.05307633930070634,-0.04767293163406411,-0.20607525675222224
-0.07787548057701221,-0.018345156761836307,-0.06639527562652822,-0.01818586088853646,-0.04051779619599205,-0.025134426379616534,-0.07554138986560335,-0.07374664063321432,-0.024238124724550277,-0.05267792264867478,-0.04727311436268898,-0.20573981116115925
-0.0773706393150256,-0.017864839248748963,-0.06581604840681644,-0.017820179074998006,-0.04003763723928411,-0.024721048768768888,-0.07511347818473503,-0.07324052464964415,-0.024013110381510404,-0.05228319806545705,-0.0468742428117869,-0.20539565847785066
-0.076851345407327,-0.017384937263949327,-0.06522409101570789,-0.017454846982019878,-0.039552296301206415,-0.024301894388099824,-0.07467744028131763,-0.07273774785109254,-0.023790043815287928,-0.05189179992375249,-0.04647635332139508,-0.205043538323286
-0.0763189651154191,-0.016905589811345614,-0.06462056002537091,-0.017089642463594453,-0.03906247592485197,-0.02387755634587946,-0.07423439400228994,-0.07223907726629844,-0.023568769201401565,-0.05150328560803732,-0.046079394954513964,-0.2046841515306961
-0.0757748190525286,-0.0164268456611432,-0.06400658941555525,-0.016724283686334662,-0.038568810108150504,-0.02344857117507255,-0.07378538423797394,-0.07174521531099533,-0.023349126646466066,-0.05111713384159194,-0.04568323552650552,-0.20431815228244365
-0.07522017474962985,-0.015948681321851736,-0.063383259597462,-0.016358416814254213,-0.03807187208163939,-0.023015422914940804,-0.0733313932175445,-0.07125680503876662,-0.023130952752899746,-0.05073274396898857,-0.0452876641910093,-0.20394614473765707
-0.07465624665401528,-0.015471001043738754,-0.06275159740779018,-0.015991616006400956,-0.03757217430995894,-0.02257854311182741,-0.07287334051100834,-0.07077443014205449,-0.022914080619032662,-0.050349435955952995,-0.04489322408502693,-0.20356868303158165
-0.07408419612929604,-0.014993636818830638,-0.06211257610873659,-0.0156233834168557,-0.03707016849185243,-0.022138310819156556,-0.07241208302920342,-0.07029861495216011,-0.022698339839106848,-0.04996645038936536,-0.04450241737981746,-0.20318627127558045
-0.07350513145540179,-0.014516348380911885,-0.06146711538799556,-0.0152531491947335,-0.0365662455601655,-0.021695052597434556,-0.07194841502379956,-0.06982982443924352,-0.022483556503276346,-0.04958295756552737,-0.044115344420956826,-0.2027993635571335
-0.07292010782858074,-0.014038823205525498,-0.0608160813587592,-0.014880271484182963,-0.03606073568184707,-0.02124904251424879,-0.07148306808729826,-0.06936846421232372,-0.02226955319760689,-0.04920134163616572,-0.04373189466011958,-0.2024083639398382
-0.07233012736139922,-0.013561979254650466,-0.0601602865597173,-0.01450403642438652,-0.03555390825794859,-0.020800502144268124,-0.07101671115303239,-0.06891488051927847,-0.022056149004076247,-0.048823831512539315,-0.04335195584323461,-0.20201362646340928
-0.07173613908274244,-0.013088040063059251,-0.05950048995505741,-0.014123658149559928,-0.03504597192362427,-0.020349600569242815,-0.07054995049516684,-0.06846936024684452,-0.021843159500574184,-0.04845022235791918,-0.04297541401048508,-0.20161545514367887
-0.07113903893781398,-0.012617011509850623,-0.058837396934464783,-0.013738278788952946,-0.034537074548131354,-0.019896454378004625,-0.07008332972869795,-0.0680321309206175,-0.021630396760902323,-0.048080308786046404,-0.04260215349630838,-0.20121410397259623
-0.07053966978813579,-0.012148844614740908,-0.05817165931312224,-0.013346968466849005,-0.03402730323482967,-0.019441127666466773,-0.06961732980945357,-0.06760336070505216,-0.021417669354773985,-0.04771388486113209,-0.04223205692939596,-0.20080977691822804
-0.06993882141154831,-0.011683489564136186,-0.057503875331710634,-0.012948725302565012,-0.03351668432118208,-0.01898363203762397,-0.06915236903409348,-0.06718315840346172,-0.021204782347814678,-0.04735074409785768,-0.04186500523269389,-0.2004027723187397
-0.06933723050221077,-0.011220895711133175,-0.05683458965640826,-0.012542475410452015,-0.03300518337875391,-0.018523926601552398,-0.06868880304010874,-0.06677157345801872,-0.020991537301561683,-0.04699067946137462,-0.041500877623402314,-0.19999505256131583
-0.06873558067060058,-0.010761011575518198,-0.05616429337889117,-0.012127072899894367,-0.03249270521321366,-0.018061917975409344,-0.06822692480582243,-0.06636859594975451,-0.02077773227346433,-0.04663348336730437,-0.04113955161297552,-0.19958738505980939
-0.0681345024435136,-0.010303784843768206,-0.055493424016333094,-0.011701442505238377,-0.03197909386433245,-0.017597460283433956,-0.06776696465038892,-0.06597415659855911,-0.020563161816883637,-0.04627894768173894,-0.04078090300712222,-0.19918000080391868
-0.06753457326406437,-0.009849162369049862,-0.05482236551140568,-0.011271506909588455,-0.03146413260598409,-0.017130355156946653,-0.06730909023379442,-0.06558812676318172,-0.020347616981092713,-0.04592686372124007,-0.04042480590580543,-0.19877312953613321
-0.06693631749168594,-0.009397090171220302,-0.054151448232277966,-0.010840980648067947,-0.0309475442150152,-0.016660351734349415,-0.06685340655685688,-0.06521031844123039,-0.020130885311276523,-0.045577022252839806,-0.04007113270324215,-0.19836699975173355
-0.06634020640212968,-0.008947513436826638,-0.05348094897261704,-0.01040993237448302,-0.03043104358249438,-0.01618714666112532,-0.06639995596122537,-0.0648404842691719,-0.019912750848531842,-0.04522921349404052,-0.039719754087904,-0.19796183869879141
-0.06574665818746543,-0.008500376519106081,-0.05281109095158748,-0.00997843051243447,-0.029916493066558063,-0.01571095917154646,-0.06594871812938147,-0.06447831752233216,-0.01969299412986763,-0.04488322711281428,-0.0393705390425166,-0.19755787237816966
-0.06515603795608169,-0.008055622937986087,-0.052142043813851506,-0.009546543255317052,-0.029403925938245222,-0.015233965496075275,-0.06549961008463753,-0.06412345211489597,-0.0194713921882045,-0.04453885222760361,-0.039023354844059804,-0.19715532554352225
-0.06456865773268534,-0.007613195380084367,-0.05147392362956929,-0.00911433856632049,-0.028893374669265965,-0.014756504877138747,-0.065052486191138,-0.06377546259990682,-0.01924771855237499,-0.04419587740732129,-0.03867806706376803,-0.19675442170129426
-0.06398477645830176,-0.007173035698708403,-0.05080679289439854,-0.008681884178428582,-0.028384870932001403,-0.014278675737584855,-0.06460713815385893,-0.06343386416926736,-0.01902174324712366,-0.043854090671349856,-0.03833453956712968,-0.196355383110722
-0.06340459999027481,-0.006735084913856086,-0.050140660529494764,-0.008249247594419699,-0.02787844559950368,-0.013800576298281169,-0.06416329501860779,-0.06309811265373892,-0.01879323279310692,-0.04351327948954229,-0.037992634513887506,-0.1959584307838328
-0.06282828110226697,-0.006299283212215451,-0.04947548188151107,-0.007816496086866501,-0.027374128745496294,-0.013322304578114019,-0.0637206231720241,-0.06276760452294194,-0.018561950206893163,-0.04317323078222167,-0.037652212358038326,-0.19556378448544512
-0.06225591948425889,-0.005865569947164576,-0.048811158722598516,-0.007383696698136466,-0.02687194964437343,-0.012843958393988834,-0.06327872634157866,-0.06244167688535559,-0.01832765500096254,-0.04283373092018105,-0.037313131847833594,-0.1951716627331687
-0.061687561742550065,-0.005433883638771733,-0.04814753925040554,-0.006950916240391129,-0.026371936771200574,-0.012365635360830221,-0.0628371455955739,-0.06211960748831815,-0.01809010318370718,-0.042494565724683776,-0.03697525002577881,-0.19478228279740417
-0.061123201399757986,-0.005004161973795286,-0.04748441808807842,-0.006518221295586604,-0.025874117801714183,-0.011887432891581666,-0.062395359343144094,-0.06180061471802675,-0.01784904725943127,-0.042155520467463375,-0.036638422228633685,-0.19439586070134351
-0.060562778894819404,-0.004576341805683796,-0.046821536284261396,-0.0060856782154735285,-0.0253785196123219,-0.011409448197205997,-0.06195278333425501,-0.06148385759953721,-0.01760423622835077,-0.04181637987072333,-0.0363025020874122,-0.1940126112209697
-0.060006181582988864,-0.004150359154575972,-0.04615858131309594,-0.005653353121596833,-0.024885168280102263,-0.010931778286684797,-0.061508770659704136,-0.061168435796764536,-0.017355415586593505,-0.041476928107137365,-0.03596734152738279,-0.19363274788505697
-0.05945324373583962,-0.0037261492073005016,-0.04549518707422158,-0.00522131190529591,-0.024394089082805,-0.010454519967018882,-0.06106261175112058,-0.06085338961248231,-0.017102327326199276,-0.041136948799849506,-0.035632790768067905,-0.19325648297517048
-0.05890374654126348,-0.0033036463173764913,-0.044830933892775586,-0.00478962022770485,-0.023905306498850944,-0.009977769843228184,-0.060613534380965076,-0.06053769998832337,-0.016844709935119766,-0.040796225022473674,-0.035298698323244296,-0.1928840275256667
-0.05835741810347075,-0.0028827840050128614,-0.04416534851939274,-0.004358343519751917,-0.023418844207331792,-0.009501624318351566,-0.060160703662529895,-0.06022028850477945,-0.01658229839721863,-0.040454539299093914,-0.034964911000943115,-0.19251559132369314
-0.057813933442990004,-0.0024634949571090106,-0.043497904130205683,-0.003927546982159785,-0.022934725088010484,-0.009026179593447111,-0.059703222049939254,-0.059900017381201,-0.016314824192271496,-0.04011167360426468,-0.03463127390344966,-0.19215138290918854
-0.0572729144966687,-0.0020457110272541503,-0.04282802032684461,-0.0034972955854457636,-0.022452971221321102,-0.008551531667591972,-0.059241043725379014,-0.05957568947579734,-0.016042015295965585,-0.03976740936301034,-0.03429763042730347,-0.1917916095748827
-0.05673393011767214,-0.0016293632357279105,-0.0421550631364374,-0.003067654069921395,-0.02197360388836851,-0.008077776337882104,-0.0587803882179126,-0.059246048285636614,-0.01576359617990047,-0.03942152745082549,-0.033963822263298485,-0.19143647736629651
-0.05619649607548502,-0.00121438176949985,-0.041478345011610004,-0.002638686945692977,-0.02149664357092904,-0.0076050091994327535,-0.05832268609590035,-0.058909777946646515,-0.015479287811587259,-0.039073808193674855,-0.033629689396482684,-0.19108619108174207
-0.055660075055909475,-0.0008006959822297197,-0.040797124830485566,-0.002210458492660754,-0.021022109951449538,-0.007133325645378348,-0.05786802289976312,-0.058565503233612815,-0.015188807654449098,-0.038724031367993225,-0.0332950701061585,-0.19074095427232252
-0.05512407666106716,-0.00038823439426764186,-0.040110607896685524,-0.001783032760520123,-0.020550021913048572,-0.006662820866871998,-0.057416484039431614,-0.0582117895601808,-0.014891869667821134,-0.0383719762006857,-0.032959800965882545,-0.19040096924193226
-0.054587857409397526,2.3075307346556593e-05,-0.0394179459393286,-0.0013564735687600269,-0.020080397539515286,-0.0061935898530863474,-0.05696815479434622,-0.05784714297885424,-0.014588184306950408,-0.038017421369127266,-0.032623716843465704,-0.1900664370472567
-0.054050720735658725,0.0004333062688825232,-0.038718237113031136,-0.0009308445066646778,-0.019613254115310022,-0.005725727391212676,-0.056523120313457215,-0.057470010180996,-0.01427745852299574,-0.03766014500116338,-0.03228665090097308,-0.1897375574977725
-0.0535119169909272,0.0008425324699199219,-0.03801052599790756,-0.0005062089333124071,-0.01914860812556431,-0.005259328066461676,-0.05608146561522439,-0.05708037990008059,-0.01395939576302801,-0.0372999246751093,-0.031948434594724094,-0.18941452915574727
-0.05297064344259822,0.0012508287233483821,-0.03729380359956989,-8.262997757572383e-05,-0.018686475256080547,-0.004794486262062965,-0.05564327558761772,-0.05668648102510969,-0.013633695970029877,-0.03693653741975078,-0.031608897675292326,-0.18909754933623993
-0.05242604427438552,0.0016582706753672275,-0.03656700734912768,0.0003398294618779964,-0.018226870393332435,-0.0043312961592651,-0.0552086349881164,-0.05628955701508466,-0.013300055582895896,-0.03656975971434332,-0.03126786818750572,-0.18878681410710044
-0.051877210586320846,0.002064934805485577,-0.03582902110318836,0.0007611067165872582,-0.017769807624464506,-0.0038698517373360526,-0.054777628443709925,-0.05588939835459979,-0.012958167536432873,-0.03619936748861284,-0.030925172470446533,-0.18848251828896995
-0.05132318039475509,0.00247089842652274,-0.03507867514385713,0.0011811393482957565,-0.01731530023729262,-0.0034102467735624147,-0.0543503404508973,-0.055485794594164514,-0.012607721261358987,-0.03582513612275542,-0.03058063515745118,-0.18818485545528063
-0.05076293863235704,0.0028762396846075448,-0.03431474617873666,0.0015998651489531807,-0.016863360720303526,-0.0029525748432501376,-0.05392685537568715,-0.055078534350203594,-0.012248402684304676,-0.03544684044743706,-0.030234079176110193,-0.1878940179322559
-0.05019541182907963,0.003281036341179403,-0.0335359679250759,0.002017224598233133,-0.01641400023681403,-0.0024969271251263606,-0.05350725090927596,-0.05466741383620032,-0.01187990917997396,-0.03506426425199917,-0.029885330418314014,-0.18761018462511955
-0.049619369238466896,0.003685343132015808,-0.03274132969635208,0.002433206545497025,-0.01596721885029831,-0.00204335160672235,-0.053091476417909705,-0.05425239544515847,-0.01150222751169814,-0.03467737702918949,-0.029534304550109844,-0.18733329472371735
-0.049035765941598544,0.004089193869969042,-0.03193765767606612,0.0028478439671706024,-0.015523006432190838,-0.0015918568730927077,-0.05267936424090243,-0.05383359302156584,-0.011115608018251014,-0.034286317560341485,-0.029180998949405745,-0.18706306871916445
-0.048452918935577426,0.004492622404871035,-0.03112992313545263,0.003261171676614719,-0.015081351710801603,-0.0011424498724805377,-0.052270742308390794,-0.05341112505349999,-0.010720307310063244,-0.03389123029373651,-0.02882541234164657,-0.18679921789612533
-0.04787178022303887,0.004895663419863842,-0.030318659399004726,0.003673224717395594,-0.014642242615111963,-0.0006951373511476986,-0.051865438420021004,-0.05298510909495315,-0.010316578493477285,-0.033492259128126485,-0.028467541746531513,-0.18654145229205538
-0.04729242435540454,0.005298352431399206,-0.02950439755458803,0.004084038363285155,-0.014205666274774039,-0.0002499258533751574,-0.05146328024494915,-0.05255566176583361,-0.009904671170747788,-0.0330895474127335,-0.028107382478014104,-0.18628948069720122
-0.04671492371923895,0.005700725789238895,-0.028687666453440973,0.004493648118260573,-0.01377160902011102,0.00019317827853694978,-0.051064095321840974,-0.05212289875196441,-0.009484831440041152,-0.032683237947249456,-0.027744928144301927,-0.18604301065460066
-0.046139348536248584,0.006102820676454146,-0.027868992710174394,0.004902089716505193,-0.013340056382117528,0.0006341689042694857,-0.05066771105887222,-0.051686934805084454,-0.0090573018954356,-0.03227347298183656,-0.027380170647856868,-0.18580174846008252
-0.045565766863282675,0.006504675109426705,-0.02704890070277175,0.005309399122407315,-0.012910993092458785,0.0010730400854843294,-0.050273954733728136,-0.05124788374284763,-0.008622321626921312,-0.03186039421712737,-0.027013100185395177,-0.18556539916226683
-0.044994244592332415,0.006906327937847693,-0.026227912572589197,0.005715612530561009,-0.012484403083471344,0.0015097860858241223,-0.049882653493603914,-0.05080585844882356,-0.008180126220400563,-0.031444142804224175,-0.02664370524788734,-0.1853336665625647
-0.0444248454505319,0.007307818844718125,-0.02540654822435516,0.006120766365765935,-0.012060269488162871,0.0019444013709126373,-0.049493634355204354,-0.05036097087249709,-0.0077309477576872595,-0.031024859344699736,-0.026271972620558068,-0.1851062532151784
-0.04385763100015727,0.007709188346348991,-0.02458532532617093,0.006524897283027406,-0.011638574640211953,0.00237688060835429,-0.04910672420474422,-0.04991333202926834,-0.007275014816507458,-0.030602683890596873,-0.025897887382886373,-0.1848828604271013
-0.04329266063862714,0.008110477792361133,-0.02376475930951025,0.006928042167555978,-0.011219300073968243,0.0028072186677348134,-0.048721749797947925,-0.049463052000452805,-0.0068125524704989535,-0.030177755944428376,-0.025521432908605344,-0.184663188258118
-0.04272999159850248,0.008511729365685302,-0.02294536336921927,0.007330238134768151,-0.010802426524452569,0.003235410620620456,-0.04833853776004967,-0.049010239933281755,-0.006343806370535448,-0.029750214459177377,-0.02514259086570261,-0.18444693552080407
-0.042169678947486786,0.008912986082562,-0.022127648463517106,0.007731522530285725,-0.010387933927356872,0.0036614517405587836,-0.04795691458579331,-0.048555004040901226,-0.005869186767903378,-0.029320197838297198,-0.024761341216419888,-0.1842337997805264
-0.04161177558842579,0.009314291792541743,-0.021312123313995106,0.008131932929936156,-0.00997580141904386,0.004085337503078005,-0.047576706639432635,-0.048097451602373074,-0.005389039011552693,-0.028887843935711,-0.024377662217253137,-0.1840234773554428
-0.04105633225930777,0.009715691178484627,-0.02049929440561731,0.008531507139752375,-0.009566007336547614,0.004507063585687398,-0.04719774015473121,-0.04763768896267445,-0.004903684991297255,-0.02845329005581236,-0.023991530418952692,-0.18381566331650237
-0.04050339753326305,0.010117229756560774,-0.019689665986720322,0.008930283195972959,-0.009158529217573236,0.004926625867877194,-0.04681984123496218,-0.04717582153269779,-0.004413445285122311,-0.028016672953464977,-0.023602920666522975,-0.18361005148744527
-0.03995301781856501,0.01051895387625038,-0.018883740069013246,0.009328299365041972,-0.008753343800496692,0.005344020431118502,-0.04644283585290856,-0.04671195378925084,-0.003918639159184175,-0.027578128834002562,-0.023211806099222923,-0.18340633444480287
-0.03940523735862862,0.010920910720343104,-0.01808201642757789,0.009725594143609182,-0.008350427024365314,0.005759243558863383,-0.04606654985086326,-0.04624618927505698,-0.003419584567810491,-0.027137793353229012,-0.02281815815056547,-0.18320420351789754
-0.03886009823201182,0.011323148304938746,-0.0172849926008686,0.01012220625852983,-0.007949754028897261,0.006172291736544668,-0.045690808940628706,-0.045778630598754685,-0.0029165981534999253,-0.026695801617418347,-0.022421946548318014,-0.18300334878884286
-0.038317640352414806,0.011725715479447002,-0.01649316389071222,0.010518174666864524,-0.007551299154481957,0.006583161651576377,-0.04531543870351725,-0.04530937943489813,-0.0024099952469227187,-0.026252288183314786,-0.02202313931450188,-0.1828034590925436
-0.037777901468679966,0.012128661926587112,-0.015707023362308132,0.010913538555879643,-0.007155035942179637,0.006991850193353469,-0.044940264590351144,-0.04483853652395651,-0.0019000898669199462,-0.025807387058132816,-0.021621702765393193,-0.18260422201669546
-0.03724091716479236,0.012532038162388322,-0.014927061844228364,0.011308337343047207,-0.00676093713372187,0.007398354453251686,-0.044565111921462036,-0.04436620167231454,-0.001387194720504201,-0.02536123169955663,-0.021217601511521886,-0.18240532390178552
-0.03670672085987918,0.012935895536190121,-0.014153767928417674,0.011702610676044606,-0.006368974671511182,0.007802671724627582,-0.04418980588669162,-0.04389247375227243,-0.0008716212028590453,-0.024913955015741035,-0.020810798457672322,-0.18220644984109188
-0.03617534380821025,0.013340286230641141,-0.013387627970193026,0.012096398432754757,-0.005979119698621019,0.008204799502818784,-0.04381417154539125,-0.04341745070204562,-0.00035367939733942083,-0.024465689365310794,-0.02040125480288306,-0.18200728368068364
-0.035646815099197544,0.01374526326170053,-0.012629126088244288,0.012489740721266355,-0.0055913425587962,0.008604735485144115,-0.0434380338264221,-0.042941229525765116,0.0001663219245285503,-0.02401656655736076,-0.01998893004044696,-0.18180750801942128
-0.035121161657395684,0.014150880478636954,-0.011878744164633692,0.012882677879873499,-0.005205612796452414,0.009002477570902856,-0.04306121752815514,-0.042463906293476884,0.0006880753030475862,-0.023566717851456004,-0.019573781957911204,-0.18160680420895622
-0.03459840824250145,0.014557192564029056,-0.01113696184479604,0.013275250477075902,-0.004821899156676408,0.009398023861375535,-0.042683547318470995,-0.04198557614114283,0.0012112745903491073,-0.023116273957631567,-0.019155766637077153,-0.18140485235373108
-0.03407857744935422,0.014964255033765103,-0.01040425653753903,0.013667499311578618,-0.0044401695852261105,0.009791372659823584,-0.04230484773476008,-0.04150633327063986,0.001735614950393475,-0.022665365036392954,-0.018734838454000327,-0.18120133131097965
-0.03356168970793551,0.01537212423704372,-0.009681103415042436,0.014059465412292771,-0.0040603912285302555,0.01018252247148912,-0.04192494318392281,-0.0410262709497602,0.0022607928589694713,-0.022214120698715513,-0.01831095007899066,-0.18099591869072676
-0.033047763283369544,0.01578085735637283,-0.008967975412858886,0.014451190038334494,-0.0036825304336891643,0.010571472003595579,-0.041543657942368924,-0.040545481512211885,0.0027865061036952093,-0.021762670006044937,-0.017884052476612396,-0.18078829085578843
-0.03253681427592263,0.016190512407570662,-0.008265343229913609,0.014842714679025626,-0.0033065527484736597,0.010958220165347055,-0.04116081615601822,-0.040064056357617804,0.003312453784017016,-0.02131114147029689,-0.017454094905683917,-0.1805781229217718
-0.03202885662100361,0.01660114823976501,-0.007573675328504403,0.015234081053893955,-0.0029324229213259366,0.011342766067928566,-0.04077624184030042,-0.03958208595151663,0.0038383363112104046,-0.020859663053857214,-0.01702102491927781,-0.1803650887570751
-0.03152390208916385,0.01701282453539376,-0.006893437934301302,0.01562533111267221,-0.002560104901359168,0.01172510902450634,-0.040389758880154544,-0.03909965982536212,0.004363855408379564,-0.02040836216958204,-0.01658478836472107,-0.18014886098288782
-0.031021960286096818,0.017425601810204312,-0.006225095036347449,0.016016507035299145,-0.0021895618383576325,0.012105248550226997,-0.040001191030029776,-0.038616866576523655,0.004888714110457388,-0.019957365680797468,-0.016145329383594687,-0.17992911097319045
-0.0305230386526386,0.017839541413254365,-0.005569108387058149,0.016407651231918795,-0.00182075608277684,0.012483184362218779,-0.03961036191388487,-0.038133793868285706,0.005412616764205667,-0.019506799901299828,-0.015702590411734448,-0.1797055088547546
-0.030027142464767686,0.018254705526911198,-0.004925937502221415,0.016798806342881018,-0.0014536491857429076,0.012858916379590385,-0.039217095025188546,-0.037650528429848514,0.005935269028214812,-0.01905679059535558,-0.015256512179229883,-0.17947772350714308
-0.029534274833604664,0.018671157166852106,-0.004296039660997786,0.01719001523874099,-0.0010882018990534253,0.013232444723431588,-0.038821213726918886,-0.03716715605632733,0.006456377872904148,-0.018607462977701262,-0.014807033710424905,-0.17924542256270987
-0.02904443670541286,0.01908896018206408,-0.003679869905920587,0.017581321020259538,-0.0007243741751770093,0.013603769716813041,-0.03842254125156426,-0.036683761608753036,0.006975651580521793,-0.018158941713543642,-0.014354092323917787,-0.17900827240659997
-0.02855762686159783,0.019508179254844025,-0.0030778810428954257,0.017972767018403064,-0.0003621251672531862,0.013972891884786415,-0.03802090070112245,-0.03620042901407158,0.007492799745144636,-0.0177113509185595,-0.013897623632561047,-0.17876593817674957
-0.028073841918707394,0.019928879900798745,-0.002490523641200561,0.018364396794343527,-1.4132290926489523e-06,0.014339811954384205,-0.03761611504710107,-0.03571724126514473,0.00800753327267832,-0.017264814158895976,-0.013437561543461247,-0.178518083763886
-0.02759307632843218,0.020351128468844962,-0.0019182460334868554,0.018756254139458237,0.0003578040848228824,0.014704530854619905,-0.03720800713051763,-0.035234280420749206,0.008519564380857186,-0.01681945445117022,-0.012973854490396619,-0.17826437181152768
-0.027115322377604795,0.02077499214120908,-0.0013614943157778607,0.0191483830753305,0.0007155700193405258,0.015067049716487976,-0.036796399661899244,-0.034751627605577345,0.009028606599244595,-0.016375394262469454,-0.012506531261656259,-0.1780044637159842
-0.026640570188200367,0.02120053893342765,-0.000820712347469492,0.019540827853748815,0.0010719286186364767,0.015427369872963687,-0.03638111522128277,-0.03426936301023691,0.00953437476923248,-0.015932755510351088,-0.012035611035560558,-0.17773801962635624
-0.02616880771733641,0.02162783769434684,-0.00029634175133020605,0.019933632956707335,0.0014269247262158648,0.015785492859003505,-0.03596197625821509,-0.03378756589125076,0.0100365850440416,-0.0154916595628427,-0.011561107328731146,-0.17746469844453566
-0.02570002075727289,0.022056958106122633,0.00021117808649854706,0.02032684309640591,0.0017806039849124966,0.016141420411544604,-0.035538805091752605,-0.033306314571057434,0.010534954888721536,-0.015052227238442125,-0.01108303155398419,-0.17718415782520539
-0.02523419293541217,0.02248797068422107,0.0007014100165033175,0.0207205032152497,0.0021330128368893106,0.016495154469504926,-0.03511142391046146,-0.03282568643801066,0.01102920308015061,-0.014614578806117029,-0.010601393020331367,-0.17689605417583962
-0.024771305714298884,0.022920946777418013,0.0011739191257977486,0.021114658485849532,0.0024841985236382863,0.016846697173783717,-0.034679654772417814,-0.03234575794637956,0.011519049707036141,-0.014178833985305552,-0.010116198932978628,-0.17660004265670345
-0.024311338391620117,0.023355958567799106,0.0016282727381228654,0.021509354311021908,0.0028342090859801742,0.017196050867261,-0.03424331960520736,-0.03186660461634882,0.012004216169913843,-0.013745111945915683,-0.009627454393327255,-0.17629577718085335
-0.023854268099341634,0.02379307906936169,0.0020640404237149946,0.02190463632278036,0.0031830933637816044,0.01754321809667721,-0.03380224020952602,-0.03138830103310291,0.012484425185332928,-0.013313531306241511,-0.009135162400755159,-0.17598295185509177
-0.023400055060987888,0.02423235826291941,0.0024809624302103523,0.022300533170718537,0.0035308961654505018,0.01788823369536253,-0.03335629971388629,-0.03091090522286515,0.012959472209089013,-0.012884091095002336,-0.008639354267964269,-0.1756614406600364
-0.022948605081714483,0.024673762376099043,0.002879378221682696,0.022697012730462398,0.0038776459776742574,0.01823124641137878,-0.03290559893393133,-0.03043441890082587,0.013429407158479487,-0.012455840974345557,-0.008140167006799478,-0.17533152058391885
-0.022499810231003944,0.0251172397393306,0.003259761691731329,0.023094029599316068,0.004223368295250157,0.018572430374879892,-0.0324502867875049,-0.029958830585634002,0.013894337319113641,-0.012028685915294402,-0.007637759396768055,-0.17499356570716973
-0.022053560413481395,0.02556279295866614,0.003622588970582895,0.023491538604788968,0.004568089412304727,0.018911959918000883,-0.031990512061960144,-0.029484127861853705,0.01435437128842963,-0.011602825054016658,-0.007132288113572307,-0.17464794909094888
-0.02160974055575286,0.026011545793688414,0.003968362046540585,0.023889495910845514,0.004911838977351034,0.019250006601382822,-0.03152643072776571,-0.029010300498908032,0.014809616995165482,-0.01117843910662118,-0.006623913533502574,-0.17429503689293271
-0.021168219030876005,0.026463633187826963,0.004297705962966311,0.024287863569874328,0.0052546605067812545,0.019586726978990183,-0.03105823603235524,-0.028537353284834758,0.015260173549926518,-0.010755686807140808,-0.006112823617217848,-0.17393516415509333
-0.020728857458904418,0.026918621050583416,0.004611286525428634,0.024686605668715323,0.005596602483507298,0.01992227295715745,-0.030586133020851638,-0.02806529516045121,0.015706138144988488,-0.01033470792335159,-0.005599213688290524,-0.17356865530323132
-0.020291515293057987,0.02737609151996206,0.004909771792713608,0.02508568652519095,0.0059377141915643115,0.020256796642111635,-0.030110326613023944,-0.02759413413468052,0.016147609283064943,-0.009915624668028221,-0.005083276970564368,-0.17319583373974373
-0.01985604982169936,0.027835642968097166,0.005193832060234566,0.02548507068732913,0.006278073702789272,0.0205904503420607,-0.02963102159815104,-0.027123877282361555,0.01658468677869831,-0.009498541699551801,-0.004565204584078486,-0.17281702184775705
-0.019422316168333505,0.028296890001253246,0.0054641398600325675,0.025884722933363462,0.0066187903783531095,0.020923386567193964,-0.02914842263502162,-0.026654530744248214,0.017017471758259677,-0.009083546121909885,-0.004045185545066361,-0.17243254099112698
-0.018990167291607508,0.02875946345982513,0.0057213699607759575,0.02628460827173298,0.006960257663171888,0.021255758029681,-0.02866273425193417,-0.026186099727009936,0.017446066659948863,-0.008670707484696385,-0.003523406765956936,-0.1720427115144385
-0.018559453985311315,0.029223010418337615,0.0059661993677604655,0.026684691941082354,0.007302264845111244,0.02158771764367278,-0.02817416084669675,-0.025718588503231513,0.017870575233794928,-0.008260077783111667,-0.0030000530553736253,-0.171647852743006
-0.018130024878376783,0.029687194185446034,0.006199307322909305,0.027084939410261757,0.007644612189173874,0.021919418525301115,-0.027682906686627335,-0.025252000411413136,0.018291102541655085,-0.007851691457962617,-0.002475307118134921,-0.171248282982873
-0.01770172643487852,0.030151694303935685,0.006421375304773263,0.027485316378327088,0.007987110937499164,0.02225101399267847,-0.0271891759085537,-0.02478633785597031,0.018707754957215786,-0.007445565395662362,-0.0019493495552543546,-0.17084431952081236
-0.01727440295403336,0.030616206550722013,0.006633087028530096,0.027885788774539604,0.008329583309363306,0.022582657565898855,-0.026693172518813292,-0.024321602307233934,0.019120640165992093,-0.007041698928230707,-0.0014223588639402463,-0.17043627862432636
-0.016847896570200454,0.031080442936850725,0.006835128445985496,0.028286322758366105,0.008671862501179637,0.022914502967036558,-0.026195100393253314,-0.023857794301450196,0.019529867165327713,-0.006640073833293698,-0.0008945114375958299,-0.1700244755416464
-0.016422047252881603,0.031544131707497855,0.007028187745572448,0.028686884719479246,0.009013792686498049,0.023246704120147066,-0.025695163277230936,-0.02339491344078101,0.019935546264395462,-0.00624065433408395,-0.0003659815658193211,-0.16960922450173338
-0.015996692806720694,0.03200701734196953,0.007212955352351125,0.029087441277756674,0.009355229016005434,0.023579415151266988,-0.025193564785612774,-0.02293295839330321,0.02033778908419669,-0.0058433870994403754,0.00016305856559616433,-0.1691908387142772
-0.015571668871504296,0.03246886055370206,0.007390123928009337,0.029487959283282364,0.009696037617525521,0.023912790388413464,-0.024690508402775542,-0.02247192689300928,0.02073670855756157,-0.0054482012438084,0.0006924388746627491,-0.16876963036969733
-0.015146808922161093,0.03292943829026194,0.007560388370862392,0.029888405816345238,0.010036095596019012,0.024246984361585056,-0.024186197482605348,-0.02201181573980718,0.021132418929149147,-0.00505500832723986,0.0012219913831973208,-0.16834591063914245
-0.014721944268762326,0.033388543733345905,0.0077244458158529416,0.03028874818743984,0.01037529103358328,0.024582151802760743,-0.023680835248498497,-0.02155262079951987,0.0215250357554472,-0.004663702355392934,0.0017515502168222355,-0.16791998967449054
-0.014296904056521757,0.033845986298780835,0.007882995634550955,0.030691980450814487,0.010713522989452672,0.024920445536673563,-0.02317462479336057,-0.021094337003885938,0.021914675904772318,-0.004274159779532489,0.002280951604964492,-0.16749217660834873
-0.013871515265795062,0.034301591636523965,0.008036739435154044,0.031104665665766584,0.011050701499998327,0.02526597314286071,-0.022667769079607547,-0.02063695835055947,0.022301457557269776,-0.0038862394965296257,0.0028100338808565587,-0.16706277955405358
-0.013445602712080954,0.03475520163066251,0.008186381062486892,0.03152489752297773,0.011386747578728531,0.02561781439824515,-0.022160470939164487,-0.02018047790310964,0.02268550020491367,-0.003499782848861798,0.0033386374815357217,-0.16663210560567102
-0.01301898904601997,0.03520667439941409,0.008332626598002093,0.03195060092158644,0.01172159321628797,0.025974939205376434,-0.021652933073466604,-0.01972488779102112,0.023066924651507087,-0.003114613624613141,0.003866604947844576,-0.16620046083799617
-0.012591494753395369,0.03565588429512621,0.008476184359779405,0.03237996325221102,0.012055181380458631,0.02633640943284664,-0.021145358053458983,-0.019270179209694024,0.023445853012681556,-0.0027305380574740305,0.0043937809244306665,-0.16576815030655329
-0.012162938155132589,0.03610272190427695,0.00861776490252589,0.032811434396949085,0.012387466016158944,0.02670137891529034,-0.020637948319596085,-0.018816342420443832,0.023822408715897612,-0.002347344826741302,0.004920012159746655,-0.1653354780475964
-0.0117331354072998,0.03654709404747448,0.008758081017576401,0.033243726729378045,0.01271841204544461,0.027069093453384162,-0.020130906181842465,-0.01836336675050126,0.024196716500444547,-0.0019648050573182496,0.0054451475060502165,-0.1649027470781083
-0.011301900501107099,0.03698892377945692,0.008897847732892879,0.03367581511455467,0.013047995367507904,0.027438890813847174,-0.019624433819672372,-0.017911240593012606,0.024568902417440332,-0.0015826723197146285,0.005969037919404226,-0.16447025939580137
-0.010869045262907391,0.03742815038909286,0.009037782313064867,0.03410693690901536,0.013376202858678115,0.027810200729441025,-0.019118733282069655,-0.01745995140703929,0.024939093829831876,-0.0012006826300465466,0.006491536459676376,-0.1640383159791172
-0.010434379354195677,0.037864729399380986,0.009178604259309326,0.034536591960776075,0.013703032372421377,0.028182544898969403,-0.01861400648752817,-0.01700948571755848,0.02530741941239474,-0.0008185544500366793,0.007012498290539928,-0.16360721678722667
-0.009997710271609648,0.03829863256745018,0.009321035309470474,0.03496454260933224,0.01402849273934063,0.028555536987278505,-0.01811045522405143,-0.01655982911546236,0.02567400915173338,-0.00043598868701388935,0.007531780679472851,-0.16317726076003006
-0.009558843346928974,0.038729847884559666,0.009465799438020266,0.03539081368565889,0.014352603767175696,0.02892888262525692,-0.01760828114915252,-0.0161109662575587,0.026038994346280972,-5.266869391383147e-05,0.00804924299775826,-0.16274874581815674
-0.009117581747076067,0.03915837957609856,0.009613622856057952,0.035815692512210555,0.014675396240803275,0.029302379409835645,-0.017107685789854745,-0.015662880866570555,0.026402886350953725,0.00033173973072177156,0.008564746720484339,-0.16232196886296563
-0.00867372647411569,0.03958424810158645,0.009765234011310032,0.03623972890292135,0.014996911922236842,0.029675916903988,-0.016608870542690786,-0.01521555573113628,0.02677168506095537,0.0007175883427446172,0.009078155426544426,-0.16189722577654467
-0.008227076365254682,0.04000749015467291,0.009921363588130635,0.036663735163204994,0.01531720355062709,0.030049476636729345,-0.016112036673703308,-0.014768972705809867,0.02714629650793839,0.0011052464523997852,0.009589334798636892,-0.16147481142171127
-0.007777428092842707,0.04042815866313806,0.010082744507501282,0.03708878608995459,0.015636334842261044,0.030423132103117912,-0.015617385318444537,-0.014323112711060433,0.02752547452520688,0.001495100924326219,0.010098152623265293,-0.1610550196420122
-0.007324576164371511,0.04084632278889174,0.010250111927030917,0.03751621897154293,0.015954380490562935,0.03079704876425385,-0.015125117481976615,-0.013877955733272619,0.027908249991356014,0.0018875561775564059,0.010604478790738123,-0.1606381432617233
-0.006868312922475486,0.041262067927974426,0.010424203240955953,0.03794763358782238,0.016271426166093804,0.031171484047279947,-0.014635434038871374,-0.013433480824746304,0.02829393083027138,0.002283034185516095,0.011108185295168986,-0.1602244740858499
-0.006408428544931174,0.04167549571055645,0.01060575808014016,0.038384892210124644,0.016587568516551535,0.031546787345381445,-0.014148535733210555,-0.012989666103697006,0.028682102011129567,0.0026819744760250156,0.011609146234476654,-0.15981430290012646
-0.0059447110446574445,0.042086724000938505,0.01079551831207468,0.03883011960126124,0.01690291516677085,0.03192340001778549,-0.013664623178585524,-0.012546488754255194,0.029072625548397606,0.0030848341312961097,0.012107237810384978,-0.15940791947101698
-0.0054769462697160974,0.042495886897551585,0.010994228040878216,0.03928570301552299,0.017217584718723346,0.03230185538976206,-0.013183896858097392,-0.012103925026467207,0.02946564050183327,0.0034920877879360745,0.012602338328422781,-0.15900561254571446
-0.0050049179033106244,0.04290313473295663,0.011202633607296859,0.03975429219868052,0.01753170675151749,0.03268277875262309,-0.012706531834384343,-0.011661950236294447,0.029861562976485203,0.0039042276369452037,0.01309432819792403,-0.1586076698521414
-0.0045284074637874285,0.043308634073845054,0.011421483588704196,0.04023879938798375,0.017845421821398623,0.033066887363723284,-0.012224067775244062,-0.011220538765613667,0.030261086122692536,0.0043217634237173305,0.013583089932027783,-0.15821437809894956
-0.004047194304635018,0.0437125677210382,0.011651528799101115,0.04074239931216218,0.01815888146174903,0.0334549904464595,-0.011731608917544207,-0.010779664062217208,0.030665180136085147,0.004745222448039664,0.01406850814767822,-0.15782602297551984
-0.003561055614484295,0.044115134709487726,0.01189352228911593,0.041268529191425124,0.018472248183087535,0.03384798919027068,-0.011231935285882462,-0.010339298639812646,0.03107509225758377,0.005175149564093228,0.014550469565624571,-0.15744288915196267
-0.0030697664171087935,0.04451655030827563,0.01214821934600458,0.041820888737461,0.018785695473070366,0.0342468767506386,-0.010727648494931498,-0.009899414078022906,0.03149234677339963,0.005612107180452526,0.015028863010420978,-0.1570652602791176
-0.0025730995714241954,0.04491704602061383,0.01241637749365016,0.042403440153438256,0.019099407796490116,0.03465273824908717,-0.01022117174943915,-0.009459981022386385,0.03191874501503483,0.0060566752600857724,0.015503579410427057,-0.15669341898855368
-0.002070825771488642,0.045316869583844656,0.012698756492563322,0.04302040813400452,0.019413580595276446,0.035066750773182775,-0.009714749844228819,-0.009020969184356947,0.03235636535928198,0.006509451320354388,0.01597451179780713,-0.15632764689256892
-0.0015627135465027277,0.04571628496944056,0.01299611833988232,0.0436762798652871,0.019728420288495956,0.03549018337653387,-0.009210449164198655,-0.008582347341303457,0.032807563228224465,0.006971050433013664,0.016441555308530798,-0.15596822458419088
-0.001048539214385622,0.04611557780687648,0.013309196851261168,0.04437580727800092,0.020044143289391896,0.03592438587981824,-0.008710147372741396,-0.008144080287434902,0.03327497069675755,0.007441757467463398,0.016901116596435298,-0.15561541965688144
-0.0005282635116698152,0.046515151632252255,0.013638157880218257,0.04512404702968687,0.02036095856239267,0.03637059014085441,-0.008215350428924682,-0.007706074726819398,0.03376148952790113,0.007898554803551379,0.01734798013522066,-0.15526927410976482
-2.01071864053728e-06,0.04691551651322733,0.013982663111675115,0.04592635577944257,0.02067906968459802,0.03682993354133724,-0.007727214213167086,-0.007268185667975351,0.03427029199591624,0.008333870344971406,0.017783578502046978,-0.15492962947296882
0.0005300912891032186,0.04731720189040639,0.014342358864107146,0.04678835398172774,0.020998690641401762,0.037303638948116676,-0.007246710228612487,-0.0068302654208243435,0.03480482719322564,0.008756915136453094,0.018209575791018295,-0.15459631932430917
0.0010679168008200508,0.04772075343852393,0.01471689369261689,0.047715924582481375,0.02132004639533436,0.03779302119408498,-0.0067746315684799755,-0.0063921653612037796,0.03536882125754235,0.009176726924432473,0.01862775608106903,-0.15426917622233136
0.001611342270626357,0.0481267330664451,0.015105918388934844,0.04871521301912195,0.02164337288606359,0.03829948707817679,-0.006311592916063869,-0.005953735930866121,0.035966277371870636,0.00960217015705177,0.019040023435963508,-0.1539480317063096
0.0021602463174959464,0.0485357189171649,0.01550908598141821,0.049792627220547815,0.021968917030393723,0.038824535365368854,-0.005858030544733522,-0.005514826637479593,0.03660147576450502,0.01004193598415996,0.01944840190429654,-0.15363271629624803
0.002714509725260253,0.04894830536780876,0.01592605173505224,0.050954837607136476,0.02229693672226617,0.039369756786680955,-0.005414202317933508,-0.005075286054627481,0.03727897370903102,0.010504542257312278,0.019855035519493466,-0.15332305949287953
0.0032740154426084216,0.04936510302963231,0.0163564731514494,0.05220877709074521,0.02262770083275886,0.03993683403917452,-0.004980187689183623,-0.004631524216415062,0.038003605524324705,0.01099833352977021,0.020262188299809376,-0.1530188897776665
0.003838648583087272,0.04978673874802114,0.016800009968849536,0.05356164107471082,0.022961489210086946,0.04052754178595357,-0.004555887702078991,-0.00417953906890521,0.03878048257455279,0.011531481056502042,0.02067224424833028,-0.1527200346128007
0.004408296425100871,0.050213855602491274,0.01725632416211983,0.055020887453849636,0.023298592679602197,0.041143746656164645,-0.004141024990289551,-0.0037199486282644754,0.03961499326917295,0.012111982794182099,0.021087707352971996,-0.1524263204412031
0.004982848411911247,0.05064711290668885,0.01772507994275517,0.05659423661445748,0.023639313043793395,0.04178740724499653,-0.003735143777560695,-0.0032530828969293975,0.040512803062933284,0.012747663401191343,0.02151120158648071,-0.15213915441721254
0.005562196151637982,0.051086691849511416,0.018205943758877685,0.05828967143430985,0.023983963082285994,0.04246057411368027,-0.00333760987771303,-0.0027789639874697372,0.04147985445587267,0.01344617423761716,0.02194547090643302,-0.15186218346645122
0.006146233417258207,0.05152223129765331,0.018698584295236968,0.06011543728266145,0.024332866551842518,0.043165389789489375,-0.002947610694642215,-0.0022973061225878217,0.04252236699332072,0.014214993365253295,0.02239337925523584,-0.1515947626106668
0.006734856146606634,0.05195428707136733,0.01920267247321021,0.06207914349075176,0.024686358186362375,0.043904088765739785,-0.0025641552223189894,-0.001807515635119486,0.04364683726589777,0.015061425547600017,0.022857910560126125,-0.15133594170888615
0.007327962442375552,0.05238944251673377,0.019717881450801483,0.0641643399327904,0.02504478369688158,0.0446789975017896,-0.002186074044789621,-0.0013086909680331425,0.044860038909514816,0.015992602249863635,0.023342168733171447,-0.15108469004760425
0.007925452572115025,0.052834246738457734,0.020243886622643037,0.06637875583929423,0.025408499771573265,0.045492534423039514,-0.0018120193361751287,-0.000799622674430357,0.046169022605373526,0.017015481638957324,0.023849377671269368,-0.15083989634078382
0.008527228968232548,0.05329521459986825,0.020780365619994,0.06874382898928656,0.02577787407574738,0.04634720992093231,-0.001440464860672095,-0.00027879341754585396,0.04758111607996627,0.01813684858350072,0.024382881256147924,-0.1506003687298558
0.009133196227993336,0.05377882672291934,0.021327989863749428,0.07127918654384767,0.026153285251850494,0.04724562635295335,-0.001069705972551972,0.0002556220292528996,0.04910392410507622,0.01936331465381934,0.024946143354365295,-0.15036483478371887
0.009745501213693596,0.05429152948818944,0.021891009609990984,0.07400264504611442,0.026535122919466372,0.04819047804263033,-0.0006978596161616613,0.0008057567824653303,0.05074532849777712,0.020701318121945596,0.02554274781731007,-0.1501319414987399
0.010368072394506,0.05483973503488116,0.022470774921864705,0.0769302104212806,0.026923787675315534,0.04918455127953304,-0.0003228643259231117,0.0013740518484577128,0.052513488120433556,0.022157123961618234,0.026176398481201055,-0.1499002552987535
0.01100209275534517,0.05542982126082194,0.023068481458007994,0.08007607797659663,0.02731969109325523,0.05022213684710132,5.751977366657255e-05,0.001963256123463693,0.05441683888070069,0.023736823848282292,0.026850919167087515,-0.14966826203506256
0.011648977752104469,0.05606813182246357,0.023685590951945137,0.08345263240136973,0.02772325572427979,0.05127726510652812,0.0004457109680350603,0.002576426393583521,0.05646409373152432,0.025446336159089346,0.027570253680848627,-0.14943436698643744
0.01231040819307735,0.05676097613488236,0.024323831212087105,0.08707044776696386,0.028134915096520222,0.0523649570253037,0.000844305952534812,0.0032169273347847616,0.05866424267114103,0.027291405972897385,0.028338465813194186,-0.149196894859117
0.012988330238957546,0.057514629371779036,0.024985196121732105,0.09093828752679989,0.02855511371524454,0.05350384029750867,0.0012560798324432398,0.003888431512901704,0.06102655274307832,0.029277605070270652,0.02915973933966416,-0.14895408978680766
0.013684955402838721,0.05833533246547871,0.025671945639065146,0.09506310451635501,0.028984192043482043,0.0547116393678773,0.0016839861229624121,0.00459491938363589,0.06356056803615391,0.031410331933479925,0.0300383780206287,-0.14870411533068412
0.014402760550214841,0.05922929210693143,0.026386605797158024,0.09945004095316416,0.029416355667130946,0.05600517543179746,0.0021311567492192643,0.0053406792925557054,0.06627610968447678,0.033694811746502615,0.030978805601288652,-0.14844505447938888
0.015144487898979925,0.06020268074571122,0.027131968703969805,0.10410242843681802,0.02985158507375534,0.05740036643531068,0.0026009020462656046,0.006130307475096554,0.06918327586744616,0.03613609639502217,0.03198556581167445,-0.1481749096490323
