I,II,III,aVR,aVL,aVF,V1,V2,V3,V4,V5,V6
1.1979977464247724,1.1168321757413404,1.2278033897783853,1.192066163579214,1.0418242963785547,1.2473489828980082,1.2067213266077315,1.2008218683734058,1.0589130496963208,1.130231868614784,1.1018644423966288,1.228972301769815
1.1731185441830916,1.093855638204562,1.2023370621303693,1.1676637464642392,1.019992016920316,1.2237226737284903,1.1837611313359504,1.1757683702589798,1.03656425055854,1.1070626067151277,1.0802859380151717,1.2029727078458043
1.1072597051181037,1.033034963917112,1.1349067678099534,1.1030586986563233,0.9621928259810488,1.1611838231811984,1.1229809247216054,1.1094418670320938,0.977387192816074,1.0457400552300085,1.0231490619424404,1.134138985210704
1.0060936122487025,0.939589736234992,1.0315196473884745,1.0038805432823719,0.8734480403537055,1.0651307918023905,1.0296503234440373,1.0076200948990162,0.8866618462851795,0.951500733166287,0.9355358065844374,1.0285126634998727
0.8767804090874822,0.8201103457167163,0.8997394424719137,0.8772286655565001,0.7600914930084741,0.9423771042491076,0.9104178278581834,0.8775897243915425,0.7710355315540213,0.830959695662526,0.8238455251867862,0.8937089940451497
0.7275378322205356,0.6821591786050045,0.748262304221414,0.7312559735348346,0.6293957966490875,0.8007434739485272,0.7729164919757583,0.727718553773184,0.6381513724644413,0.6917056153515387,0.6954350014848035,0.7384765258531428
0.5676412113074555,0.534270616826786,0.5869167933532765,0.5751688981155147,0.4895723437128218,0.6490578030979622,0.6257639234652578,0.5674555090391676,0.4966482961119594,0.5423007823603865,0.558618449703496,0.57269710560523
0.4070156671919516,0.38559415477702996,0.4259975649110144,0.4187526825055903,0.3493644544000448,0.4967578096594622,0.478149163767097,0.40684682641300773,0.35556405284192844,0.39195040955499555,0.42211365335084383,0.40682908293436554
0.2531407996860128,0.24306151988557048,0.27291005541717744,0.26925696313908537,0.21527767334670833,0.35093791822798,0.33693351064805427,0.25334106238732873,0.22138675429022409,0.2476864451614106,0.29220360032382664,0.24854685286963898
0.11133982789953238,0.11159559104974694,0.13303175408394965,0.13187826961784013,0.09196668472922644,0.21665214381213668,0.207018660910709,0.11227552432091423,0.09883222270621418,0.1144862856773228,0.17344703298255496,0.10337397544381174
-0.014236675886978094,-0.004959858445833671,0.010493854283422472,0.01064899172657291,-0.01695197761495871,0.09783836924661263,0.09221679860316476,-0.01220728149186653,-0.008479436450311848,-0.003755975456562212,0.06934876322676448,-0.024416365989786408
-0.12060589934657724,-0.10383469510852879,-0.091818491779219,-0.09156033601476757,-0.10889741420970454,-0.0026774342348875957,-0.004746298813154332,-0.1171572130444388,-0.09802366221461771,-0.10422228849750258,-0.01764005962254936,-0.1317999397470613
-0.2059527901058928,-0.1833324252376598,-0.1722661730656956,-0.17304103435100196,-0.18232435994016663,-0.08318120699963394,-0.08223126046350368,-0.20081649261802142,-0.16837143811702074,-0.18517064740071873,-0.08612194882313222,-0.21700146581315366
-0.2696300557451204,-0.24283019492451174,-0.2304561197046345,-0.23324627929171945,-0.2367231840527993,-0.1430708010158712,-0.13968512205981867,-0.2626197067816271,-0.21918929218289063,-0.2459350898193939,-0.13575308021146876,-0.2794946158424395
-0.31215816379802575,-0.28277879005233336,-0.2672413029915682,-0.27279110211127783,-0.272619890155355,-0.18285597985281968,-0.17764132590071335,-0.303193806392063,-0.25123929693265074,-0.28692569710467447,-0.1672432922027846,-0.32000201315852966
-0.33522534175194374,-0.3047026362963383,-0.28472073538893616,-0.2934523893488051,-0.2915761162168858,-0.20415841868067472,-0.19771972087148132,-0.3243581065939303,-0.26637906938177763,-0.3096285943056693,-0.18235608579104626,-0.34049523275427085
-0.34149019520481044,-0.3110454056650988,-0.28562366372201825,-0.29786052729472356,-0.2959417034597801,-0.20950973330201692,-0.2023895383205079,-0.32881354134666546,-0.2669991359545516,-0.31648932250955675,-0.18340603283986479,-0.3437823366629025
-0.3328018001260903,-0.3035027679063092,-0.27216568291127574,-0.28789771874101994,-0.2873810123635811,-0.20067467551746782,-0.19338788601997217,-0.318489112361084,-0.25506443948297486,-0.3092099347955639,-0.17225151460236418,-0.33193436326343384
-0.31275236350482294,-0.2853411892836843,-0.24838834455916406,-0.26723959824731364,-0.2691504190517634,-0.1810907555308523,-0.17411266019197394,-0.2971533867503006,-0.23413020360901352,-0.29100222037708745,-0.15230717179552877,-0.3089481841871478
-0.2850312188664176,-0.2599752382381958,-0.2179786281761725,-0.2394745610772559,-0.24446707515536387,-0.15426034848932443,-0.14795547417435156,-0.26849308110823433,-0.20742728959950102,-0.2653251514156673,-0.1266992532244825,-0.27863097989702856
-0.252827508125216,-0.230359883123706,-0.18408677825630104,-0.20769235264592342,-0.21610387903524228,-0.12320942385708324,-0.11784210148821397,-0.23568321401251877,-0.1777145241982871,-0.23517750204003965,-0.09810025006734328,-0.24425328563158868
-0.2188301815844937,-0.19899049220696893,-0.14932630427706053,-0.1744840685198179,-0.18638947578208132,-0.09048754541537299,-0.08623247583794201,-0.20138710602450266,-0.1472786996262391,-0.20309784834613753,-0.06872889587522374,-0.20854899140487054
-0.1852279979364595,-0.16790283366762954,-0.11577398069947262,-0.1419421544168658,-0.157208257216387,-0.05816787126248306,-0.05512069111118736,-0.16775637968924972,-0.11793457358124113,-0.1711645683970904,-0.04035016657223097,-0.1737153420064457
-0.15370952426225531,-0.1386730755982236,-0.08496984696806925,-0.1116604062064184,-0.130000361888488,-0.02784715381374752,-0.02603500137887305,-0.1364309595355381,-0.09102486923819422,-0.1409958422232239,-0.014275280455465588,-0.14141293700141444
-0.12546313603195622,-0.11241778600417845,-0.057917207510893395,-0.08473396990925218,-0.10576167507853594,-0.0006457398015458645,-3.782089519368874e-05,-0.10853907207586112,-0.0674202752490167,-0.11374965182206004,0.008638301804976368,-0.11276573073040667
-0.10117701710457101,-0.08979393280381226,-0.0350826317394985,-0.06175934169756847,-0.08504382879650584,0.02279242972469744,0.022274275902385496,-0.08469724580642711,-0.04751944574264395,-0.09012378115831784,0.027986877166005467,-0.08836103230958135
-0.08103915972804115,-0.07099888382833457,-0.016395954048949016,-0.042834367894993626,-0.06795420178219508,0.04229981939851324,0.04077055439312726,-0.06501031120715917,-0.031249000325028115,-0.07035581616391229,0.04382050021153696,-0.06824950563062648
-0.06473481298662495,-0.05576935637644497,-0.0012337459221820292,-0.02754906704614431,-0.05414936603514881,0.05818850249279803,0.055791617879460555,-0.04906231281434863,-0.018049545511105734,-0.05422311685539712,0.05665728046002104,-0.05193118498928705
-0.05149443301636426,-0.043407206468384515,0.011165310832473557,-0.01512798031113507,-0.042937120025198734,0.07119399439135898,0.06806209232903043,-0.03605736159643198,-0.007258876350758917,-0.04104933533114775,0.06714784980434672,-0.03858440385322896
-0.040711265681171435,-0.03333598313516397,0.02132601098822435,-0.005020981650150989,-0.03381619735206308,0.0818848631147093,0.0781171722379297,-0.025429039230234398,0.0015821641196017678,-0.030226227182692456,0.07573898992018417,-0.027644340737143547
-0.03190798596006591,-0.025113554482175292,0.029724616975540352,0.0032366715845124254,-0.026369891570117904,0.0907134130074808,0.08639533580499684,-0.016700199033550966,0.008891220364531037,-0.021307137339850752,0.08283527370193063,-0.01861888235951478
-0.024647661728969813,-0.01833488839693084,0.03679396115043816,0.01006940931855626,-0.02021740260254568,0.0980934693478249,0.09329741838866804,-0.009435060207802269,0.015047742115659653,-0.013882532824838232,0.08880455835401291,-0.011059319349915038
-0.018533753760707868,-0.012632052549063261,0.042923445794480646,0.015861348755678743,-0.015013836741335544,0.10440037834741273,0.09918661250697725,-0.0032392078380353074,0.02039298437169457,-0.007580002752267134,0.0939779853908866,-0.00456034624900468
-0.013210115725007248,-0.007674214390325874,0.04845904311477732,0.020956294377575044,-0.010450206647283352,0.10997100715143494,0.10438846783755552,0.002240407107077654,0.025230007398418724,-0.0020642583291456706,0.09864998063703585,0.001239938491467501
-0.008360994188498038,-0.0031676411545925242,0.05370329524398402,0.025657737943937307,-0.0062534313499915135,0.1151037438386017,0.10919089121763173,0.007315467775237968,0.029823676728691156,0.0029628671451213647,0.10307825422697378,0.006660032508664673
-0.0037110286147125806,0.0011443001421429493,0.05891531424030324,0.030228858492454665,-0.00218633624786902,0.12005849742114283,0.11384414664403203,0.012256291430521407,0.0344006631624471,0.007762418278733038,0.10748380060524285,0.011975029528661918
0.0009747486359139541,0.005481142701765892,0.06431078208748357,0.03489252233881324,0.0019523468918684966,0.12505669784480777,0.11856085527318061,0.017291829453377868,0.039149442766697774,0.012558317587491884,0.11205089852641373,0.017416619366445875
0.005890912306044072,0.010025319944041287,0.07006195069482067,0.039831283076696054,0.006327979933198663,0.1302812959888653,0.12351599542109869,0.022609667340631037,0.04422029687553053,0.01753736549480425,0.11692711105508648,0.0231730879259152
0.011191644241437508,0.014922165506613835,0.0762976418971561,0.04518738157778321,0.011070018371292728,0.135876763666104,0.12884690256340514,0.02835602470547946,0.04972531209010878,0.022849240331680384,0.12222328556588972,0.029389317199880347
0.016990733390951543,0.020279913245007494,0.08310324745487814,0.051062745991751875,0.01627201133251513,0.14194909362283203,0.13465326933531624,0.03463575527749509,0.05573838027867202,0.028606498336733906,0.1280135537434812,0.036166785270063506
0.02336157580654049,0.02616969723262623,0.09052072905392174,0.057518991746275935,0.02199160157442374,0.14856579953887725,0.14099714553164625,0.04151234690262432,0.06229519857653587,0.034884573656182236,0.13433533158254735,0.043563566307098636
0.030337174643256484,0.032625551760753185,0.09854861830576785,0.0645774215470265,0.028250525485769933,0.1557559160275867,0.1479029381068066,0.04900792154318764,0.06939326938609203,0.041721778343846376,0.14118931938780352,0.05159433057053164
0.03791014015924906,0.03964441133855119,0.10714201674744418,0.0722190253776714,0.035034613086498176,0.16350999863582735,0.15535741117480614,0.057103235277879714,0.07699190037680831,0.04911930236115125,0.14853950177399422,0.06023034440882011
0.046032689715764886,0.04718611069306271,0.1162125958415251,0.08038448049987586,0.042293788027746686,0.17178012384398542,0.16330968600925166,0.0657376783017694,0.08501220448522859,0.057041213577125195,0.15631314766589252,0.06939947025933364
0.05461664777714816,0.0551733847692097,0.12562859697613085,0.08897415145330143,0.049942067591846745,0.18047988906596713,0.17167124104334733,0.07480927492629949,0.09333709991497263,0.0654144577684004,0.16440081029830028,0.07898616664835345
0.06353344591084072,0.06349186872979357,0.13525647748075598,0.0978480900556074,0.05785756269232319,0.1894844126491981,0.18031591186989446,0.084174683579287,0.10185521869400059,0.07412885861921263,0.17268576677319072,0.08883221035556221
0.07267275239548558,0.07202580767747327,0.14525411132214047,0.1069804327003879,0.06599408736554524,0.1986965252685505,0.18917687124392302,0.09380209467446249,0.1107109171992134,0.08305220454052305,0.18129669014988756,0.09898361171388445
0.08220089240026672,0.08091747350965868,0.15565856292477354,0.11652728629746602,0.07449966646714877,0.20827700924282344,0.1984126616408845,0.10385361802472573,0.11993103431281654,0.09229707442467779,0.1902711656045877,0.10956392648191611
0.09214100942235609,0.09020240028923264,0.1664567994905112,0.12648201485556185,0.08337259252317013,0.21824121193722748,0.20802581101355394,0.11432284185410786,0.1295042545053064,0.10192442225334124,0.19959893838267806,0.12056177315774937
0.10248152160089989,0.09987060815371383,0.1776323638238976,0.13683231275219152,0.09260220497890759,0.2285771978101051,0.2180046404410097,0.12519689981676616,0.13941624977939573,0.11192372862205326,0.2092668594936016,0.13196235626190475
0.11320767797007156,0.10990920776610098,0.18916537433216518,0.14756270665811397,0.1021750229800574,0.2392700117311431,0.22833451528077153,0.1364596753450743,0.14964967967001372,0.1222815647840536,0.2192588857108569,0.1437474663373328
0.12430154936050994,0.12030237115429111,0.2010325508025067,0.15865453620691686,0.11207472379076826,0.25030168807877845,0.23899783857762683,0.1480917828701279,0.1601842005562711,0.13298159169066806,0.22955606837891335,0.15589548724849328
0.13574183311152968,0.13103070582025722,0.21320776767491656,0.1700855390948896,0.12228167956757327,0.26165144600318835,0.24997390959338434,0.1600701647463548,0.17099666552966405,0.14400453939455848,0.24013631316939388,0.16838155284583675
0.14750385574631578,0.1420712633139582,0.22566204646305485,0.181829856764629,0.1327729637050005,0.273295686751433,0.261238925744836,0.17236809677313755,0.182061121656134,0.15532820733187097,0.25097438337211136,0.18117754481970014
0.15955976611958744,0.1533981582651275,0.23836300854463205,0.19385844475834382,0.14352280898522185,0.2852078005443234,0.27276612252365656,0.18495558685296512,0.19334861229818545,0.16692748469327168,0.2620421375060923,0.19425193775268593
0.17187854398109031,0.16498259582897795,0.2512748509000467,0.20613909091148513,0.15450262789080635,0.2973581580140149,0.2845257796999614,0.19779939266654262,0.20482716835053952,0.17877435132712582,0.273308539854419,0.2075697922498251
0.18442599997559667,0.17679287168620192,0.26435834611238573,0.21863641535274722,0.16568101260472087,0.3097141102040083,0.2964852213223075,0.21086302167279072,0.21646180824013367,0.19083787773949829,0.2847396604642292,0.22109275493857866
0.19716477564290513,0.18879437204297245,0.277570842367424,0.2313118705040666,0.17702373501033028,0.322239988569149,0.30860881571769316,0.2241067311088459,0.22821453792612212,0.20308422509415344,0.2962986751467171,0.2347790584688359
0.21005434341784074,0.20094957363094135,0.29086626345362526,0.2441237410806235,0.18849374669139682,0.3348971049756271,0.32085797549155815,0.2374875279900614,0.24004435089987544,0.21547664521255538,0.3079458654771324,0.2485835215129162
0.22305100663025532,0.21321804370724093,0.3041951087621408,0.2570271440908396,0.20005117893208066,0.3476437517009783,0.3331911575277832,0.25095916911000515,0.251907228184981,0.22797548057386738,0.3196386187947805,0.262457548765568
0.23610789950502664,0.22555644005448297,0.3175044532868106,0.26997402883638055,0.21165334271693928,0.3604352014340826,0.345563862988691,0.26447216104046173,0.2637561383372425,0.24053816431495278,0.33133142820302297,0.2763491309439684
0.24917498716205957,0.23791851098075942,0.3307379476241631,0.28291317691215456,0.22325472873092872,0.37322370727516585,0.357928637315045,0.2779737601314319,0.2755410374446802,0.2531192202303742,0.34297589256927735,0.2902028447877247
0.26219906561628503,0.25025509531964163,0.3438358179734144,0.2957902022063121,0.23480700735940185,0.3859585027357976,0.3702350702260504,0.29140797251113126,0.2872088691275315,0.26567026277239375,0.3545207165250165,0.30395985305887246
0.2751237617776606,0.26251412243018085,0.35673486613646926,0.30854755090024694,0.2462590286881097,0.39858580173889335,0.3824297957193534,0.3047155540859924,0.29870356453824976,0.27813999705097336,0.36591171046576954,0.3175579045418772
0.28788953345117,0.2746406121969083,0.3693727791612087,0.3211245014685953,0.25755682250320067,0.4110487986187129,0.39445649207104194,0.317834010540663,0.30997185744235767,0.2904742188337744,0.3770940206955591,0.33093133404363323
0.30043366933682414,0.2865766750298346,0.3817345435435003,0.3334596448659029,0.2686439619777442,0.4232876681208616,0.40625588183564487,0.3306996375218249,0.3210008240684295,0.3026158145461577,0.38805274923104427,0.3440253900912503
0.312707285509199,0.2982699385926349,0.3937536793580269,0.34553615909386204,0.27950003352191377,0.43526002819645476,0.41779939657818993,0.3432941393769913,0.33172795129011795,0.31450629070452724,0.3987344871860594,0.35682227683152545
0.3246910130096049,0.30970595658237243,0.4053480995876936,0.35729509134471577,0.29008149176386877,0.4469439333698761,0.42905079613944835,0.3555584755651792,0.34208110566075217,0.3261282447242249,0.40906859973445336,0.3692425861623233
0.3363084089970423,0.32081902784007293,0.41644115607641813,0.3686584865860403,0.30031802748916053,0.4582650734021533,0.43993579508844843,0.36741226635911667,0.35199293469224624,0.3374297617248548,0.41898905207691833,0.3812047986817026
0.3474834032043796,0.3315377678560374,0.4269616395291316,0.37955347707222997,0.3101438682200946,0.4691514976899593,0.4503848509941917,0.3787803533345343,0.36140086685510026,0.34833830910340047,0.42843440944098904,0.39263285798484193
0.3581450480636061,0.3417955046842964,0.43684377951177794,0.38991228234449693,0.31949777821572983,0.4795361319983325,0.4603331824237401,0.3895927993701661,0.3702471115784,0.35878608171992865,0.43734783708104297,0.4034561706640396
0.3682275187058319,0.3515302789426111,0.44602724445131414,0.39967220923087216,0.3283230584718795,0.4893567784606755,0.4697207689422173,0.3997848886477493,0.37847865924981705,0.36871000189758946,0.4456771002783001,0.4136096063087136
0.3776701129612874,0.36068484381247273,0.4544571416357101,0.4087756518462033,0.33656754672111017,0.4985561155787569,0.4784923511128072,0.40929712665202433,0.3860472812156081,0.3780517194226165,0.4533745643408241,0.42303349750540237
0.38641725135932375,0.3692066650391031,0.46208401721394843,0.4171700915921568,0.3441836174327426,0.5070816982227099,0.4865974304967551,0.4180752401707343,0.39290952978061644,0.3867576115443264,0.46039719460352035,0.4316736398377642
0.3944184771284129,0.3770479209314539,0.4688638561960253,0.4248080971572172,0.35112818181285127,0.5148859576310335,0.49399026965336684,0.4260701772946262,0.39902673820827017,0.39477878297511915,0.46670655642813785,0.4394812918865768
0.40162845619614757,0.38416550236220737,0.4747580824529495,0.4316473245166867,0.35736268780426483,0.5219262014105914,0.5006298921400101,0.4332381074174493,0.4043650207205838,0.40207106589047786,0.472268815203268,0.44641317522973867
0.4080069771892407,0.3905210127677759,0.4797335587167427,0.4376505169326858,0.36285312008656523,0.5281646135366121,0.5064800825121126,0.43954042123595655,0.4088952724981569,0.4085950199289691,0.4770547363443448,0.45243147444226695
0.41351895143352646,0.39608076814830195,0.4837625865804398,0.4427855049541529,0.3675700000760887,0.5335682543526896,0.5115093863231631,0.44494373074990373,0.4125931696801748,0.41431593219224305,0.4810396852936456,0.45750383709629994
0.418134412953959,0.40081579706765863,0.48682290649808835,0.4470252064168445,0.37148838592592515,0.5381090605707834,0.5156911101247119,0.4494198692620506,0.4154391693644091,0.41920381724503214,0.4842036275202897,0.46160337376109517
0.4218285184746134,0.4047018406534488,0.48889769778474945,0.450347626443335,0.37458787252591835,0.5417638452712173,0.5190033214663701,0.45294589137815866,0.41741850960721655,0.42323341711515317,0.48653112852024016,0.4647086580030304
0.4245815474186857,0.407719352597006,0.48997557861649654,0.4527358574430165,0.376852591502666,0.5445142979026811,0.5214288488958095,0.45550407300699314,0.41852120942353965,0.42638420129350574,0.4880113538163023,0.4668037263856027
0.4263789019084922,0.409853499153394,0.4900506060304161,0.45417807911209984,0.37827121121951973,0.5463469842822292,0.5229552819587631,0.4570819113603235,0.4187420687869064,0.42864036673407274,0.48863806895812395,0.46787807846942986
0.4272111067654701,0.4110941591414064,0.4891222759246083,0.45466755843361345,0.37883693677658475,0.5472533465952811,0.5235749711990242,0.45767212495292053,0.4180806686294313,0.42999083785392056,0.48840963952219635,0.46792667681224936
0.4270738095101771,0.4114359239435675,0.4871955230581854,0.4542026496774037,0.3785475100107201,0.5472297033956216,0.5232850281584484,0.45727265360255903,0.41654137084181364,0.4304292665331983,0.48732903111185316,0.4669499469689182
0.42596778036229177,0.41087809750613186,0.4842807210512738,0.4527867944001353,0.37740520949553924,0.5462772496054008,0.5220873253769507,0.4558866584300173,0.41413331827333855,0.4299540321151389,0.485403809357271,0.4649537774914134
0.4238989122406128,0.40942469633908396,0.4803936823850108,0.4504285214452905,0.37541685054140855,0.5444020565151335,0.5199884963925083,0.4535225218590761,0.4108704347318771,0.4285682414060586,0.48264613991546884,0.4619495199288323
0.4208782207630601,0.40708444951613876,0.47555565840154895,0.4471414469431697,0.3725937851954494,0.5416150717837004,0.5169999357411592,0.4501938476165195,0.4067714249838859,0.4262797286753565,0.47907278847030904,0.45795398882739163
0.41692184424667394,0.40387079867474146,0.4697933393040525,0.4429442743108921,0.36895190224153596,0.5379321194383465,0.5131377989570015,0.44591946073213495,0.40185977475440726,0.4231010556555153,0.47470512073249654,0.4529894617304287
0.4120510437076156,0.3998018980160677,0.4631378216745082,0.43786079425239377,0.3645116272002971,0.5333738998746823,0.5084230025721952,0.44072340753871275,0.3961614940231839,0.41904951154210124,0.4695689078402307,0.4470836791784002
0.4062922028611663,0.3949006143050226,0.4555750035881611,0.43191988475842935,0.35929792232911467,0.5279659898566833,0.5028812241169609,0.4346349556720465,0.389661322388795,0.41414711299376283,0.4636546975280399,0.44026470162315445
0.399672760447045,0.38919405911651017,0.447139815297991,0.4251188583458494,0.3533174808454783,0.5217322934161657,0.49652621915012257,0.42765311907048786,0.3823962978216452,0.4084206041322329,0.4569846223966495,0.43251385842344564
0.39217567869550374,0.38267129077551987,0.4379041314569315,0.4174712041783973,0.34656936663556603,0.5146565626188019,0.4893490033447066,0.4197885801466012,0.37442911069327134,0.4018773451975968,0.44961871106900103,0.4238811224681126
0.3838461072440601,0.3753584655494866,0.42793833211649074,0.4090438573219624,0.3391116888777575,0.5067875640493933,0.4814074991631769,0.41110969719224444,0.36582113489605356,0.3945171286805742,0.4416157303883998,0.41443814692171294
0.37475152387574906,0.3673173849339439,0.41731130272675143,0.3999024720913692,0.33100312506914586,0.49818943740607075,0.472763555723731,0.4016836704615785,0.3566324278432181,0.38640102519264174,0.433033185418515,0.40425511131160824
0.364958055103635,0.35860861257597454,0.40609043413637175,0.3901113418439039,0.32230114341670196,0.4889250335084654,0.46347775681688547,0.39157630429641177,0.34692173046883457,0.3775906377378518,0.423927319443379,0.39340072152796296
0.35453047617081057,0.3492914742742099,0.39434162259258404,0.3797333989793153,0.3130620028372735,0.4790559142977098,0.45360942090547546,0.3808520071261987,0.3367464672278179,0.36814633563608623,0.4143531139673887,0.38194220982374527
0.343532211050397,0.3394240579788308,0.38212926974119515,0.36883021493981366,0.3033407529575855,0.46864235283643657,0.44321660112465494,0.3695737914680402,0.32616274609592766,0.35812725452305544,0.4043642887153041,0.36994533481472713
0.332025332445545,0.32906321379156706,0.3695162826265873,0.3574620002100718,0.29319123411423986,0.45774333330877975,0.4323560852818968,0.3578032739266835,0.3152253585697681,0.3475912963502987,0.39401330163224896,0.3574743814794829
0.32007056178943344,0.31826455396569747,0.3565640736917169,0.34568760431722434,0.2826660773537161,0.4464165510203735,0.4210833958569928,0.34560067519452253,0.3039877796667879,0.33659512938518443,0.38335134888371125,0.3445921611593913
0.30772726924527055,0.3070824529060501,0.34333256077811564,0.3335645158308677,0.27181670443237055,0.4347184123983532,0.40945279000205304,0.33302482005159756,0.29250216792528055,0.32519418821090934,0.3724283648555421,0.33136001155863437
0.29505347370629276,0.2955700471690018,0.3298801671258895,0.32114886236306067,0.260693327816437,0.42270403499135467,0.3975172595415074,0.3201331373655953,0.28081936540438446,0.3134426737265,0.3612930221539566,0.3178377967441968
0.28210584279578027,0.2837792354625686,0.3162638213735617,0.3084954105683533,0.2493449506821098,0.4104272474694603,0.3853285309722623,0.3069816600919642,0.26898889768399387,0.3013935531468584,0.3499927316056104,0.3040839071458653
0.2689397074229294,0.271760768500907,0.30253879971520736,0.295657595314409,0.23781945033999058,0.3979405352315032,0.37293722421408537,0.29362514080087254,0.25705888544574423,0.28909860735624493,0.3385737191223931,0.2901552572230885
0.2556090304486264,0.2595645070808766,0.28875826909775343,0.28268757773421327,0.22616381185285778,0.38529489117982657,0.36039330676423886,0.2801173907562436,0.2450758145705899,0.2766085666344206,0.32708127596494874,0.27610727318897416
0.2421661255993588,0.24723915548787817,0.2749737443033715,0.26963607498679804,0.21442386103393002,0.3725399998669749,0.34774561683132366,0.26651096078953407,0.23308487670316427,0.26397296924815933,0.31555962662579773,0.2619938817997518
0.22866187252516723,0.23483217929940264,0.26123524312024904,0.2565524139128783,0.2026442068374551,0.3597242653982001,0.3350417237411479,0.2528570129283824,0.22112997503840093,0.2512401190099081,0.30405176641972526,0.2478675298958216
0.21514579960545807,0.22238980624448243,0.24759128873512892,0.24348456039539462,0.19086824892749654,0.34689480300032205,0.32232793149181055,0.23920531328813,0.20925369629230264,0.23845708604793656,0.2925994288821411,0.23377919068033598
0.2016660839496672,0.20995702620369938,0.23408890973332933,0.23047911935975132,0.1791381776779959,0.334097439021662,0.30964927875372916,0.22560423207176572,0.19749731070171664,0.22566970680634343,0.281243085768819,0.21977836371925114
0.18826955139725896,0.19757759120918497,0.2207736400987427,0.21758133477381347,0.16749497417277134,0.32137671093204156,0.2970495388696404,0.2121007435699239,0.18590077202433547,0.21292258404505657,0.270021947055896,0.2059130749413269
0.17500167651772622,0.18529401544461896,0.2076895192138365,0.20483508964790897,0.1559784102055186,0.3087758673227832,0.2845712198545997,0.19874042616088575,0.1745027175386953,0.20025908683983223,0.25897396093987346,0.19222987663812632
0.1619065826105914,0.1731475752452303,0.19487909185965266,0.1922829060348271,0.1446270482798105,0.29633686790671027,0.27225556439598103,0.18556746231057902,0.1633404680441778,0.18772135058225592,0.24813581383761596,0.17877384746401603
0.14902704170540493,0.16117830909779726,0.18238340821580812,0.17996594502981972,0.13347824160909671,0.2841003835181467,0.26014254985347735,0.17262463857257748,0.1524500278610092,0.17535027697974168,0.23754293038635194,0.1655885924361656
0.13640447456174645,0.1494250176406472,0.17024202386049442,0.16792400677060065,0.12256813411670461,0.27210579611291696,0.24827088825910054,0.15995334558810204,0.1418660848302601,0.16318553405553304,0.2272294734436735,0.15271624293454855
0.12407895066922421,0.13792526366365637,0.15849299977047793,0.15619553043734558,0.11193166043583809,0.2603911987683469,0.23667802631718102,0.14759357808601925,0.13162201031384574,0.1512655561487018,0.2172283440875367,0.14019745670194164
0.11208918824747544,0.12671537210825004,0.14717381116476724,0.14481759425269217,0.10160254590957875,0.24899339568326265,0.2254001454043682,0.13558393488284287,0.12175146753795524,0.1396275439141489,0.20757146702482102,0.12807141784392492
0.10047255424616605,0.1158304300674025,0.13633368227204778,0.13382591548174033,0.09161330659088514,0.23794790217799078,0.21447216156963023,0.12396161888273254,0.11229689097329176,0.1283074643226044,0.19830114579516306,0.11637726868972713
0.08926532919504629,0.10530428678563772,0.12598163466596485,0.12326331172473932,0.08200027842172287,0.2272897301490365,0.20393108989981643,0.11277058929159599,0.10326286492568311,0.11734005066062665,0.1894290356706915,0.10516326892089903
0.07851274352341614,0.09517713770365988,0.11611163583271517,0.11315527768432046,0.07279373833360558,0.21706161610695673,0.1938141226224905,0.10203908147373003,0.09464407581876909,0.10676220367971771,0.18095068131607492,0.09443647049565887
0.0682275947038187,0.08547077213753904,0.1067173369468187,0.10349803422701732,0.06399226225323937,0.20727196393498368,0.1841227157316599,0.09176391808287086,0.08643493900867782,0.09660873372641714,0.1728613538101758,0.08419216408946778
0.058406325511510586,0.07618264273177215,0.09779207287111838,0.09428711567984013,0.055592418335458006,0.19791738939792045,0.1748539677186545,0.08194103682188929,0.07862959878402503,0.08688075773265015,0.16515605064605118,0.07442524940145046
0.04904492884287139,0.06730965164331078,0.08932886215678013,0.08551766166251266,0.04759041081617384,0.18899408713298607,0.16600458495256468,0.07256596785089994,0.07122192836591454,0.0775757626054308,0.15782949573095226,0.06513023515439484
0.04013894771540357,0.058848272714453156,0.08132040704329314,0.07718441708747123,0.03998208001237772,0.1804978306498166,0.15757088168024166,0.06363383378726148,0.06420552990793792,0.06869078317924475,0.15087613938632427,0.05630123909475126
0.031683475267732554,0.0507945514728435,0.07375909345846936,0.06928173215986576,0.03276290232213873,0.17242397233046447,0.14954878002629704,0.05513934970557678,0.05757373449617479,0.06022240221605051,0.1442901583478072,0.047931987992634296
0.023673154759606872,0.04314410513147285,0.06663699101844456,0.061803562377559226,0.025927990224604753,0.16476744342939884,0.14193380999310332,0.04707682313769273,0.05131960214919273,0.0521667504052785,0.1380654557652353,0.04001581764182116
0.016102179571897877,0.035892122588678146,0.05994585302767684,0.05474346853112749,0.01947209228000194,0.15752275407350472,0.13472110946079344,0.03944015407270044,0.04543592181804724,0.04451950636383149,0.13219566120263657,0.0325456728597525
0.008964293206599926,0.029033364428143013,0.053677116478947774,0.048094616703859734,0.013389593129635025,0.15068399326208434,0.1279054241872613,0.03222283495693458,0.0399152113862817,0.03727589663608447,0.12667413063823388,0.025514107487531863
0.0022527892868301623,0.022562162918896757,0.04782190205336205,0.04184977827175809,0.007674513495887139,0.14424482886685586,0.12148110780816129,0.025417950693974508,0.03474971766992758,0.030430695693884374,0.12149394646444409,0.018913284389926458
-0.004039488443170969,0.016472422015315884,0.0423710141203474,0.036001329903537875,0.002320510182219972,0.1381985076319543,0.1154421218369079,0.01901817864464331,0.029931416417503853,0.023978225936550673,0.11664791748787849,0.012734975455366209
-0.009920146118040372,0.0107576173571224,0.03731494073765441,0.03054125356062754,-0.0026791239268264423,0.13253785517393113,0.10978203566467715,0.013015788627008109,0.025452012310017997,0.01791235769087494,0.11212857892934232,0.00697056159594497
-0.015397239751291859,0.005410796269385238,0.032643853651357184,0.02546113649716859,-0.00733145986563342,0.12725527598175415,0.10449402656040495,0.007402642916380178,0.021302938960964916,0.012226509211120815,0.1079281924238358,0.001611032747418978
-0.020479275235316438,0.0004245777625192202,0.028347608295852655,0.02075217126001557,-0.011643932587503928,0.12234275341680775,0.0995708796707884,0.002170196245314881,0.017475358916327816,0.006913646679024392,0.10403874602055252,-0.0033530121307917666
-0.02517520834138179,-0.004208847467714074,0.02441574379386099,0.016405155688736357,-0.01562434096466243,0.11779184971289286,0.09500498802028479,-0.002690504196388331,0.013960163654577553,0.0019662842037937956,0.10045195418288122,-0.007931365055604392
-0.02949444471963313,-0.008497717040207282,0.020837482956425197,0.012410492915611825,-0.019280847788254854,0.11359370597622688,0.09078835251111242,-0.007188818761686195,0.010747973586673221,-0.002623516177890613,0.09715925778840442,-0.012134209020272582
-0.033446839899092404,-0.012450696888506172,0.017601732282911783,0.008758191365635808,-0.022621979768348757,0.10973904218544357,0.08691258192324994,-0.011334515346291022,0.007829138056061407,-0.0068641445018761274,0.09415182412889903,-0.01597211799438678
-0.03704269928765858,-0.016076881260810735,0.014697081961010107,0.005437864756515496,-0.02565662753393312,0.10621815719159342,0.08336889291443679,-0.015137769388671356,0.005193735338677109,-0.010764442876538063,0.09142054691033621,-0.01945605692387428
-0.04029277817210783,-0.0193857927199742,0.012111805866732538,0.002438732098671035,-0.02839404563291845,0.10302092871814315,0.08014811002017302,-0.018609163870051463,0.002831572642942895,-0.014333705482779178,0.08895604625288162,-0.02259738173099937
-0.043208281718093475,-0.022387382143503692,0.009833861564414705,-0.0002503823047643458,-0.03084385253213688,0.10013681336097634,0.07724066565371927,-0.02175968931441163,0.0007321861097693458,-0.017581678574030528,0.08674866869089497,-0.025407839314362912
-0.04580086497014552,-0.025092028723559843,0.007850890306715283,-0.002641048857944191,-0.03301603061734198,0.09755484658839275,0.07463660010609685,-0.024600743788488175,-0.0011151591874448623,-0.020518560476250447,0.08478848717293039,-0.02789956754890251
-0.04808263285167127,-0.02751053996695729,0.006150217034616103,-0.004745232672309068,-0.034920926193208864,0.09526364274110874,0.0723255615460876,-0.02714413290177322,-0.0027214692428132728,-0.02315500158792523,0.08306530106173608,-0.03008509528589274
-0.05006614016495497,-0.029654151695163965,0.004718850377422039,-0.006575293566586265,-0.036569249483334225,0.09325139503225705,0.07029680602023422,-0.02940206980651481,-0.004098021117961519,-0.025502104380069227,0.08156863613425491,-0.03197734235294491
-0.05176439159115805,-0.0315345280443017,0.003543482652761131,-0.008143986066790032,-0.037972074630236066,0.09150587554738722,0.06853919745283989,-0.031387175197717145,-0.005256362942027247,-0.0275714233962242,0.08028774458162365,-0.03358961955400695
-0.053190841690318784,-0.033163761465146095,0.002610489866584269,-0.009464459406221634,-0.03914083969535423,0.09001443524446492,0.06704120764596856,-0.033112477313140064,-0.006208313911660159,-0.0293749652524599,0.07921160500917368,-0.03493562866936372
-0.05435939490135268,-0.034554372723126156,0.0019059317131657543,-0.010550257525469123,-0.040087346659049776,0.0887640039538727,0.06579091627944451,-0.034591411933299544,-0.006965964291022164,-0.030925188637373716,0.07832892243643044,-0.03602946245563691
-0.055284405542052134,-0.035719310898324814,0.0014155515751026254,-0.011415319072407322,-0.040823761420605585,0.08774109037840912,0.06477601091085289,-0.03583782238146742,-0.007541675411786964,-0.03223500431209115,0.07762812829711363,-0.03688560464578501
-0.055980677809086755,-0.03667195338547846,0.001124776523315611,-0.012073977402198257,-0.0413626137982259,0.08693178209328979,0.06398378697553955,-0.036865959523671464,-0.007948079673140518,-0.03331777511026511,0.07709738043913753,-0.0375189299491033
-0.05646346577800312,-0.03742610589397748,0.0010187173170480737,-0.012540960577290435,-0.04171679752903629,0.08632174554614629,0.06340114778661089,-0.037690481768695466,-0.008198080541781018,-0.034187315938076376,0.07672456312461046,-0.03794470405122353
-0.05674847340322459,-0.037996002447865516,0.0010821684038664749,-0.012831391367419691,-0.04189957026908437,0.0858962260570271,0.06301460453493384,-0.03832645506807902,-0.008304852551918375,-0.03485789377423373,0.07649728702983485,-0.03817858361411461
-0.0568518545180521,-0.038396305385840365,0.001300232841437739,-0.01296078724960844,-0.041924553593338645,0.08564004781839704,0.06281027628913609,-0.03878935291611776,-0.008280798105152821,-0.035344227669973666,0.0764031395739429,-0.03823661627608213
-0.056790212834663324,-0.038642105361253065,0.0016816760506834997,-0.012945093664966868,-0.041805742739224626,0.0855376138951374,0.06277388999560585,-0.03909509573344175,-0.008114509853724848,-0.035661488749060395,0.07644700808340725,-0.03813389501023984
-0.05658009058372888,-0.03874896272557032,0.0022642695278907157,-0.012788193605758185,-0.041550978781625315,0.08557396124281737,0.06289482026528366,-0.0392482574851176,-0.007771912911205928,-0.03582530545151697,0.0766605074789059,-0.03785771583296364
-0.056215827888085865,-0.03871890583553292,0.0030863490189674335,-0.012460949175397749,-0.04113777628816774,0.08575847426642115,0.06319278285815542,-0.039219126048846864,-0.007219118909472308,-0.035846690320662705,0.07707652851165098,-0.03737106040103823
-0.05566596894656798,-0.03852510152286635,0.00418500229909447,-0.01192979917397009,-0.04053608262412606,0.08612197250872534,0.06369962050142229,-0.038972820903605834,-0.0064233636585054885,-0.035705713994446414,0.0777269297862763,-0.03663709731840611
-0.0548984042803159,-0.03813796945880208,0.005596080327998598,-0.011161981289892996,-0.0397165415768542,0.08669528390810562,0.06444647244536963,-0.03847528632190714,-0.005352991703891875,-0.03537299997029547,0.07864253526819323,-0.03561998738524291
-0.053881500338055215,-0.03752847473282578,0.007354425293871557,-0.010125301564324216,-0.038650769967081576,0.08750868171852996,0.06546301598156115,-0.03769332097664101,-0.003977140640366141,-0.03481985765039161,0.07985308332720277,-0.03428507273616761
-0.05258410612900583,-0.0366681280806767,0.009493861342664956,-0.008788143763161343,-0.03731134640379008,0.08859188127922725,0.06677749661815172,-0.03659457673746329,-0.0022657539454638094,-0.034018274642100194,0.08138722880903386,-0.03259886915117665
-0.05097571107573547,-0.03552899131039388,0.012046973949826652,-0.007119692415953218,-0.03567154366791511,0.08997396313787652,0.06841744620505509,-0.03514753002672642,-0.00018988640031234466,-0.03294073352026167,0.08327259233470324,-0.030528883067933298
-0.0490264516681877,-0.03408367753104123,0.015045100620077263,-0.005089942217739768,-0.03370531743141866,0.09168336980999028,0.07040971320533405,-0.0333214806120352,0.0022782830358553264,-0.03156020410310601,0.08553576237864934,-0.02804360386822069
-0.04670711146368241,-0.032305351152708446,0.018518330887410523,-0.002669698029051826,-0.031387306257289437,0.09374790577891484,0.0727804626951999,-0.03108655160624712,0.005165451225700988,-0.029850143452252734,0.08820229526873238,-0.02511250387794169
-0.04398912108691507,-0.03016772788651054,0.02249550631509312,0.00016942512408880787,-0.028692831599542893,0.0961947374958302,0.07555517636401271,-0.028413689467472282,0.00849719085378102,-0.027784495872711108,0.09129671518623392,-0.021706038367118635
-0.04084455822995767,-0.027645074744587623,0.027004220495664925,0.003455002050169139,-0.02559789780322134,0.0990503933797505,0.07875865251428157,-0.02527466399907341,0.012297950426546543,-0.025337692912879916,0.0948425141658573,-0.017795645549893845
-0.037246147652257935,-0.024712210040105476,0.03207081905093875,0.007213797392185446,-0.02207919210439349,0.10234076381752286,0.08241500606166374,-0.021642068349665724,0.016591054272343142,-0.02248465336454765,0.0988621520957274,-0.013353746584529248
-0.033167261180639694,-0.02134450338725526,0.03772039963200034,0.011471765627642735,-0.01811408463015497,0.10609110116382894,0.08654766853496586,-0.017489319013117018,0.02139870254141129,-0.019200783262892426,0.10337705671739086,-0.008353745573406509
-0.02858191770930277,-0.017517875701253394,0.04397681191920854,0.01625405106855541,-0.013680628398628195,0.11032601974118346,0.09117938807614294,-0.012790655828547905,0.0267419712058858,-0.015461975886481686,0.10840762362581582,-0.0027700295630269426
-0.023464783199823085,-0.013208799198341585,0.05086265762219521,0.02158498786144621,-0.008757559318962145,0.11506949583993561,0.09633222944029889,-0.00752114198033135,0.0326408120597964,-0.011244611757272937,0.11397321626939218,0.003422031455988434
-0.017791170681152657,-0.008394297395787243,0.05839929047986512,0.02748809998734766,-0.0033242961913324564,0.12034486771826759,0.10202757399568631,-0.0016566639980930432,0.03911405271906758,-0.006525558640612964,0.12009216594993122,0.010246084548898604
-0.011537040249619221,-0.003051945111882726,0.0666068162603963,0.0339861012618005,0.0026390592930583333,0.12617483560219572,0.10828611972370651,0.004826068243288838,0.046179396621517876,-0.0012821715452383793,0.12678177182266614,0.01772479383684328
-0.004678999068926971,0.00284013153405369,0.07550409276123968,0.04110089533485512,0.009151722551980997,0.1325814616855701,0.11512788121890967,0.011949521523683478,0.053853423026861184,0.0045077072767246975,0.13405830089625165,0.02587984049684186
0.0028056986298440594,0.009303255121678884,0.08510872980911913,0.04885357569107072,0.016232226112179723,0.13958617013007457,0.12257218968899476,0.019735339277707507,0.06215158701670566,0.010865748329760757,0.14193698803276383,0.03473192276179477
0.010939151548238036,0.016358196929624085,0.09543708926003147,0.05726442564951515,0.023898419609372067,0.1472097470652264,0.13063769295480895,0.02820434159472485,0.071088555620523,0.017813134874964238,0.15043203594770094,0.04430075592048208
0.019742811320422642,0.02402517693549508,0.1065524180109466,0.0663529183637656,0.0321674697882485,0.1554723405883771,0.13934235545034918,0.03737652521884688,0.08072920115554379,0.025370562930040128,0.1595883712605046,0.054605072317564445
0.02923748251318993,0.03232386381587239,0.11843818428810943,0.07613771682190835,0.04105586050247312,0.1643934607647116,0.1487034582227602,0.04727106354893239,0.09102887298671739,0.03355824126930414,0.16941673539927746,0.06568230642827089
0.03944332262595561,0.041273374946311205,0.13095448129589807,0.08668336891129677,0.0506004905117957,0.17399197962724838,0.15874607377881111,0.05794978548685569,0.10186480482022603,0.0423958914236817,0.17980145503521985,0.07759718014904889
0.05041767589449386,0.05090320095087703,0.1439624432114813,0.09799515389278364,0.06085358153851355,0.18433639413760752,0.16954851768190765,0.06942935751159436,0.1131155872191773,0.05190274768070919,0.19062482709589995,0.0902290628222285
0.06220043949759129,0.06129611951295102,0.15732476003857104,0.10994078801949589,0.07170947366662402,0.19543024470093082,0.18102479640821015,0.08157524763998054,0.12466116760360395,0.062144341503123965,0.20177047455123123,0.10343577815324803
0.07466137445599923,0.07236283455533565,0.17090567760742212,0.12238815092927731,0.08304878745011336,0.2071443341185212,0.19304838746873337,0.09425159082760931,0.13638285025046423,0.07314154105229445,0.21312334641347386,0.11707687979272341
0.08766500663177595,0.08397742066608067,0.18457099757483164,0.1352068336295738,0.09475371419029426,0.21935028455284472,0.20549445758291032,0.10732428731162164,0.14816329629364167,0.08476804543012961,0.2245697177372336,0.13101365133644927
0.10107780288409772,0.09601580874772128,0.19818807742413957,0.1482681384974332,0.10670801593580524,0.23192153282124334,0.21823986267859213,0.12066100261070317,0.1598865237239449,0.09689701120907393,0.23599718961946267,0.14510910632539714
0.11476817106926028,0.10835578601727854,0.21162583046522948,0.16144507927950616,0.1187970254826127,0.2447333303959362,0.231163147892049,0.1341311675250871,0.17143790738910888,0.10940357680473166,0.2472946891994595,0.159227988245718
0.12860646004067713,0.1208769960062588,0.2247547258345266,0.17461238109204438,0.13090764637400798,0.2576627434040176,0.2441445475679684,0.14760597813655063,0.18270417899379285,0.1221648624758648,0.25835246965886816,0.17323677052873965
0.14246495964888084,0.13346093856065372,0.2374467884949997,0.18764648042090257,0.14292835290060932,0.27058865262745824,0.2570659852594562,0.16095839580841692,0.19357342709958195,0.13505997032439457,0.269062110221679,0.18700365655096815
0.1562179007415221,0.1459909698409408,0.24957559923615957,0.20042552512153697,0.15474919010036126,0.2833917535031051,0.2698110737280367,0.1740631471855552,0.20393509712498628,0.14796998429540084,0.27931651615422826,0.2003985796340875
0.1697414551633706,0.15835230232208286,0.26101629467406057,0.212829374419006,0.1662617737585349,0.2959545561226814,0.2822651149436521,0.18679672419438018,0.21367999134544183,0.16077797017712245,0.2890099187651987,0.21329320304496
0.18291373575631437,0.17043200479352838,0.2716455672512993,0.2247395989079706,0.17735929040772766,0.3081613852327864,0.2943151000846631,0.199037384042852,0.2227002688933096,0.1733689756009569,0.29803787540561877,0.22556091999562533
0.19561479635936063,0.1821190023592113,0.28134166523701554,0.23603948055269325,0.18793649732786308,0.31989838023489525,0.3058497095378485,0.2106651492204764,0.23088944575787584,0.1856300300414608,0.30629726946886315,0.2370768536433019
0.20772663180863432,0.19330407643755088,0.2899843927268914,0.24661401268703878,0.19788972254619158,0.3310534951853599,0.31675931289840575,0.2215618074983052,0.2381423947853525,0.1974501448163492,0.3136863103906525,0.24771785709038543
0.21913317793737938,0.20387986476145217,0.29745510964315214,0.2563499000144743,0.20711686483728964,0.34151649879540796,0.32693596896994936,0.2316109119289357,0.24435534567887687,0.20872031308649583,0.3201045336490536,0.25736251338445
0.2297203115759585,0.21374086137830586,0.3036367317345655,0.26513555860806864,0.21551739372306025,0.35117897443114326,0.3362734257645135,0.24069778084651058,0.24942588499851137,0.21933350985593378,0.32545280076447947,0.26589113551824745
0.239375850551853,0.22278341664998777,0.308413730576442,0.2728611159104932,0.22299234947273272,0.359934320113546,0.3446671205025495,0.24870949786671873,0.25325295616124366,0.22918469197185432,0.3296332992996889,0.2731857664297077
0.2479895536896622,0.23090573725285957,0.31167213357063545,0.2794184107340209,0.2294443431028626,0.3676777485184724,0.35201417961292747,0.2555349118867938,0.255736859440987,0.23817079812460815,0.3325495428597871,0.27913017900193876
0.25545312081110466,0.23800788617776827,0.3132995239455418,0.2847009932605275,0.23477755637733222,0.37430628697665463,0.35821341873293544,0.26106463708551614,0.2567792519685803,0.24619074884770428,0.33410637109222485,0.28360987606322635
0.2616601927350173,0.2439917827300463,0.313170514257764,0.28860412504148997,0.23889774180735018,0.3797187774737019,0.3631653427082796,0.2651910529232107,0.25625485101954015,0.2531454465178108,0.3342068532936529,0.28651209038703457
0.26650635127735567,0.24876120252951187,0.3111067320957044,0.2910247789979881,0.2417122226514512,0.38381587665009814,0.36677214559308474,0.2678083041417489,0.2540462568779853,0.25893777535475443,0.33268466793445545,0.28772578469200494
0.2698891192511938,0.2522217775104685,0.30723580625771707,0.2918616394207037,0.24312989291549655,0.38650005580120467,0.36893771064989367,0.2688123007645476,0.2502973494830263,0.2634726014215206,0.3296054934013363,0.2871209872416431
0.2717079604667247,0.2542809959217058,0.3017450702191743,0.2910023032539688,0.2430608452801208,0.38767560087725866,0.36956761034966734,0.26809103855416516,0.24517067379376956,0.266656772624254,0.3251300346871998,0.28450771857873614
0.27186427973125915,0.25484820232649774,0.29481458949355205,0.2883677626920429,0.24140420985926284,0.3872482279067073,0.36855977608813445,0.2655533129286703,0.23882250736959937,0.26839911871225763,0.31941273991083635,0.28003305451491006
0.2702688195453497,0.25383433367919717,0.2866171616324306,0.28409896107838867,0.23822845595565478,0.3851438952571549,0.3659209182526653,0.2613347886190932,0.23140286037017777,0.26861045127799354,0.3126018003169227,0.27389985730906874
0.2669812496673738,0.2512210040038068,0.2773183162254941,0.27835723275545327,0.2336729847495371,0.38145432245763616,0.3617903268877259,0.2556001658751637,0.22305547555544494,0.26721046711285573,0.3048391502760215,0.2663020785444156
0.26214586626729747,0.24712542029294568,0.2670763149005312,0.27129893526241217,0.22787346538003242,0.37631848537163937,0.3563073746313146,0.2485091874579945,0.21391782828561878,0.26423322271746397,0.29626046728458105,0.25742475912845253
0.25590501601031035,0.2416769075048604,0.2560421513234344,0.2630754493351692,0.2209618349451446,0.3698728844859141,0.3496080730099313,0.24021663864008222,0.20412112652119505,0.25980314415311434,0.28699517196493635,0.24744402929298145
0.24839872539290098,0.23500309470566716,0.2443595511982002,0.253833178906356,0.21306629850176068,0.3622515449104703,0.3418250724385758,0.23087234720530617,0.19379031082294748,0.25404605797881225,0.277166428065308,0.23652710859410228
0.23976470074285755,0.22722991506935147,0.2321649722669297,0.243713551105333,0.20431132906564878,0.3535860163785781,0.3330876622207491,0.22062118344892903,0.18304405435192764,0.24708668836004305,0.26689114245980283,0.22483230591221534
0.2301383282192674,0.21848160587776813,0.21958760430982752,0.23285301625818894,0.19481766761145977,0.3440053732467694,0.32352177054845277,0.20960306017759717,0.17199476286946508,0.2390486570687715,0.2562799651484137,0.2125090194520189
0.2196526738116519,0.20888070852059687,0.20674936914509592,0.2213830478868689,0.18470232307414003,0.33363621449491737,0.31324996450458525,0.1979529327087435,0.16074857473590248,0.23005448348370122,0.24543728925668712,0.1996977367438512
0.2084383719288082,0.19854806279061682,0.19376490684605768,0.2094300304987047,0.17407875443178372,0.32260267419496175,0.3023917586847093,0.18580072210415002,0.14940519805521976,0.2202256180482618,0.23446120826719555,0.1865302072482178
0.19662331735741095,0.1876027911106747,0.18074153763279788,0.19711494933498946,0.1630573741476328,0.31102645045595,0.291064468507279,0.1732711029179469,0.13805746039519756,0.209682534778799,0.22344339776856753,0.1731299195911152
0.18433302825946027,0.17616231278225428,0.16777930201058974,0.18455373384811274,0.1517450307886881,0.29902676774993553,0.2793823199055846,0.16048370839712336,0.1267917645277045,0.19854463490953522,0.21246922178459143,0.15961161669619076
0.17169089361691803,0.16434234137750972,0.15497097458855036,0.1718574290078553,0.14024487182609005,0.28672034110601563,0.26745616969307745,0.1475531427968654,0.11568818646477116,0.18693021715506686,0.20161771148634935,0.1460811853818935
0.15881803619777662,0.15225689179743357,0.14240206259747704,0.15913212906152374,0.12865632143196615,0.2742214005527654,0.25539351130933574,0.13458903268392966,0.10482051804933853,0.1749564778008456,0.19096161970668482,0.13263561720726222
0.145833258604583,0.1400182830507199,0.13015080530630693,0.14647895145472603,0.11707507173785339,0.2616417007414392,0.24329847708230146,0.12169604713523742,0.09425628372361335,0.16273951073880036,0.18056744240303169,0.11936299305656542
0.13285304327118325,0.12773713825393276,0.1182881740220815,0.13399403682979916,0.10559308283417163,0.24909052094655285,0.23127183822841793,0.10897389773909347,0.08405674053008089,0.15039430746733953,0.17049541865871104,0.10634248313837048
0.1199915524627222,0.11552238463150435,0.10687787208994479,0.12176854902580693,0.09429858277022149,0.23667466506588183,0.21941100485262835,0.09651733859518512,0.07427687811150335,0.1380347570913503,0.16079953068292857,0.0936443469855433
0.1073606282756444,0.10348125351573675,0.09597633489314678,0.1098886750785428,0.08327606755418646,0.2244984616204634,0.2078100259483771,0.08441616631458372,0.06496541871092174,0.12577364632220026,0.15152750381077704,0.08132993345524948
0.09506979263769375,0.09171928034680174,0.08563272985304046,0.09843562522052807,0.07260630115313219,0.21266376375459503,0.19655958939760926,0.07275522001974355,0.05616481717165455,0.11372265947773597,0.14272080650323468,0.06945168072895397
0.0832262473079129,0.08034030467273996,0.0758889564290837,0.08748563288101206,0.06236631549300598,0.2012699492358352,0.18574702197077064,0.06161438134450243,0.047911260937298264,0.10199237848228379,0.13441465034716643,0.05805311631242037
0.07193487387664432,0.06944647014946158,0.06677964611883769,0.07710995468597276,0.05262941045863744,0.1904139204550027,0.17545628932680776,0.051068574434081256,0.04023481925779236,0.09069228286664936,0.1266379900553226,0.04716885703571155
0.0612982337655293,0.059138224540745826,0.058660442280038916,0.06737487045811612,0.04346515389373832,0.18019010442617725,0.16576799601316747,0.04118776594508422,0.03365688555858882,0.07993074976811794,0.11954673270130686,0.03682460905318951
0.05147636557220884,0.04956850562652948,0.05169645262637756,0.058348778029792166,0.034961973606499455,0.17074578039958732,0.15679620281234707,0.03204723021164722,0.02787322041634198,0.069870359908717,0.11355534855525466,0.027037167843515345
0.04248448915975124,0.04079943496709315,0.04474897047523815,0.05007300515547346,0.027172469550920404,0.1620863830907506,0.14858014581029355,0.02369826327007537,0.021882636949187,0.060695057219809515,0.1077977941208674,0.01781483465260586
0.034058283431350804,0.03261000706841675,0.03685273318756729,0.04222102206443698,0.019792765647378023,0.15394575553609255,0.14081464606927024,0.015799215419527876,0.014886212911875344,0.052195435534850176,0.10140495713507705,0.009447562620960685
0.025929677670809167,0.024769813642923258,0.02727291886002857,0.034407924486060434,0.01249424885696201,0.14605585215451028,0.1331842999793433,0.007953485271421127,0.006287290695773969,0.0441330801236335,0.09370492194133283,0.0014094130277328017
0.01783226385255645,0.01704838809158783,0.015505146325001865,0.026271544918737916,0.0049681533777063075,0.13815239418483674,0.1253883773595103,-0.00021079497143357856,-0.004308522671134099,0.036274789306983427,0.08422296948960213,-0.007278237604128876
0.009501296641650878,0.009215205503937587,0.0012754751505837491,0.017472452629879905,-0.0030744393554101687,0.12997486968584157,0.11714082145769997,-0.009040759514830606,-0.01709335552424991,0.028392574456753694,0.07268157733636957,-0.01737887474899339
0.0006736933937789576,0.0010396826580520977,-0.01545959435941244,0.007693953655913994,-0.011902600670463817,0.12126653353623112,0.10817024895077286,-0.01885880897316964,-0.03205707156235858,0.020263659995827445,0.05900041964463721,-0.029440845878547
-0.008911965844744529,-0.007708821979437225,-0.03451312116545684,-0.003357909197716373,-0.021765554658586587,0.1117744074346476,0.09821994994452059,-0.029962610369455887,-0.04898726984762951,0.01167048339811772,0.04329636718392478,-0.043797360461793874
-0.019515438336976602,-0.017261008253346515,-0.0554677234923028,-0.01595435635655094,-0.03289267817396543,0.10124927989967031,0.08704788797366633,-0.04262509713530002,-0.06746928480561586,0.002400695188566945,0.02588348733026958,-0.06056648996505608
-0.031394818655345866,-0.027847634319940057,-0.07767557882898722,-0.030343871477112875,-0.04549350083384284,0.08944570626981427,0.0744267000018645,-0.05709446911091812,-0.08688618622525542,-0.007752841056852528,0.007273044066226669,-0.07965116785197293
-0.04480653868165302,-0.03969951664692975,-0.10025842392883036,-0.04675220144690896,-0.059757705018516585,0.07612200870353135,0.06014369642170123,-0.07359419254513157,-0.10641877925886954,-0.018992048711138902,-0.011826502019131754,-0.1007391895835016
-0.06000536760707024,-0.053047530013475626,-0.12210755480943572,-0.06538235638442941,-0.07585512587133961,0.06104027617920986,0.04400086105469385,-0.09232300009536754,-0.12504560442216395,-0.031513638096260725,-0.03050949373021559,-0.12330321261791706
-0.07724441193214143,-0.06812260751018508,-0.14188382675269,-0.08649143998161035,-0.09393575129872042,0.04396636449517419,0.025814851151291007,-0.11351562537181088,-0.14154293759422817,-0.045509106483156765,-0.04767307726491746,-0.14660075641081163
-0.09677511546678252,-0.08515574053911389,-0.15824226940325728,-0.10948362194731587,-0.11429556108734087,0.02466989626968545,0.005282746583751307,-0.136903224612735,-0.15481935454733567,-0.06116473809173649,-0.06206977921641907,-0.16967420241509562
-0.11918351887451305,-0.1043801489668495,-0.16986991077010638,-0.13216998522575713,-0.1357736902982213,0.0024957265686504494,-0.017368548609070535,-0.16025963383490474,-0.1632472979654221,-0.0786616040908794,-0.0729259678464966,-0.19156072431693494
-0.14418450502684446,-0.1267694579397778,-0.17233785059371678,-0.1523139287613184,-0.15598363612148283,-0.021354327511582085,-0.039638069795721265,-0.181186090201735,-0.1628243849783747,-0.09817556259843528,-0.07686564705785803,-0.21113901835489515
-0.1686262445773661,-0.15061271983444988,-0.16161544259628058,-0.16772677446746173,-0.17267033705232787,-0.04390049943343463,-0.05897241795606596,-0.19736249094176658,-0.1501862734043039,-0.12076429604797252,-0.07028893928284523,-0.2242881321798693
-0.1894705161570634,-0.17267497846403645,-0.1346407831005168,-0.17626776722672727,-0.18371964981158156,-0.06240568681494871,-0.07300621947023,-0.2065473933486664,-0.12282217965544327,-0.14593568481883334,-0.05041971177721219,-0.227118325939976
-0.20397151544292136,-0.1900548447965779,-0.08932071102967186,-0.17584407489073306,-0.18715834934569237,-0.07438610458342036,-0.0795621261185993,-0.20657801478122736,-0.07907487873814956,-0.169615158787603,-0.015305576620125272,-0.2164522464364451
-0.20967585515792506,-0.2001844969549835,-0.024530807907519138,-0.16441078828017544,-0.18115412882673174,-0.07761128497540058,-0.0766508150818201,-0.19537023266336842,-0.018140704252902654,-0.18815583123148372,0.036182109285836886,-0.1898249271236177
-0.20442256507105921,-0.20082968021703188,0.05988460214164075,-0.13997092118482846,-0.16401559965239434,-0.07010407753669519,-0.06247098894079908,-0.17091858448413458,0.0599304516056944,-0.19843059482693734,0.10434824421468349,-0.1454837881089464
-0.18634309199730878,-0.19008970701537106,0.16311245239298006,-0.10057541036354442,-0.13419229144599776,-0.050140649122364704,-0.03540937567670331,-0.13129626779769676,0.15423513804891498,-0.19783212164968528,0.1886739816170116,-0.08238863615299491
-0.1538612997976583,-0.16639745693751798,0.28337093352114373,-0.04432311554425377,-0.09027465205648275,-0.016250483896724434,0.0059592713290397645,-0.07465514022335203,0.26301634569390997,-0.18427286317470834,0.28781673012000525,-0.0002116646694383998
-0.1056934693790921,-0.12851937672585895,0.41790949360025004,0.030639180576035596,-0.030994047558413455,0.032783616666655205,0.06287217329474228,0.0007742805544763317,0.383663506563706,-0.15618505027624693,0.3996101535274378,0.10066254627493672
-0.04084829869459692,-0.07555548027765108,0.5630088381038857,0.12688949826493506,0.044777237748021004,0.09792553378494752,0.13637852603845327,0.09722576490135382,0.5127124940872041,-0.11252069322780255,0.5210641708196656,0.2191370299602292
0.04137309725684686,-0.006939348645016317,0.7139923820678548,0.24306166492250794,0.13828591250130307,0.17988583136607605,0.2273394999779686,0.21598318261151592,0.6459117640369492,-0.05275158170213219,0.6483649561536433,0.35340243301343666
0.14137718643025313,0.0775618699650502,0.8644199346563768,0.373901998147185,0.25230487094842186,0.27912175600870487,0.3371257661046253,0.35112473632644353,0.7763611388768039,0.023130715228744162,0.7766981625069262,0.5009370154084357
0.25927801973463876,0.17784746019068545,1.0018732496085825,0.5137848518564679,0.38012598815453785,0.3958372387940519,0.4679497449376051,0.49595508793055354,0.8926741187979282,0.11461484909354813,0.8965428248351776,0.6593855467614679
0.3951835847702573,0.2934831395151568,1.1146653261310941,0.656724616951722,0.5130835615965166,0.5315293325006647,0.6101158497958761,0.6437251729477574,0.9852375730950222,0.2206696920217412,0.9974538079597771,0.819045238911058
0.5459890651331257,0.42365716566154166,1.1940323925903495,0.7963757213181742,0.6433092522232025,0.6790528124299181,0.7531100229000167,0.7876322005414612,1.0469989305783907,0.33974433674352605,1.0714486490236659,0.9657794091375568
0.7005598887410652,0.5638878729472686,1.2341339065126025,0.9260326298249153,0.7637320844554211,0.8266804429856783,0.8877634796472874,0.9208196535145653,1.0734661795739415,0.4697680965898452,1.1130250790636094,1.0881402712973571
0.848291928789395,0.7044206563677589,1.2320525545839223,1.0386298443248982,0.8680784461859767,0.9642937969172718,1.006252708611627,1.0363772883094657,1.0627078679231858,0.6081505054923826,1.1191610230101938,1.177410359547501
0.9800045280336019,0.8360129680904627,1.1877942526501923,1.1267419036549389,0.9508720887796532,1.0833832553194869,1.1020994715436576,1.1273411350080516,1.0153531029832383,0.749983752741025,1.0893145996878277,1.2276025283456846
1.087940498789339,0.9505175785548146,1.1042881457171139,1.1825833836357176,1.007434127073215,1.177048007632574,1.1701708033706795,1.186693497331707,0.9345915516268178,0.8838805077385629,1.0254241218147444,1.2354599524502528
1.1657661229324272,1.040882576472235,0.9873672131141644,1.1980088970717742,1.0338830393754062,1.2399960516422441,1.2066790121966757,1.207362952641312,0.8260673721077764,0.9989454036838358,0.9319080960029971,1.200456126920204
1.2085711518988553,1.1011513688261274,0.8449853330510805,1.1662942397681577,1.0271346674669504,1.2685441934796708,1.2091816793023096,1.182310838110836,0.6972659262478905,1.0866842235691125,0.8151720716448936,1.1247948671151864
1.2128688066847773,1.1264626808718814,0.6876659139320774,1.0925070970497601,0.9849022166005509,1.2606180476214872,1.1765816591449236,1.1112034660434769,0.5575902766440681,1.1410038961550188,0.6837402303981036,1.0134103086954995
1.17659579717739,1.1130505523716254,0.5254332999894016,0.9862002757326315,0.9061325202936106,1.2157520338826615,1.1091270485437092,1.0042245611780263,0.41548866859376543,1.1582125033917317,0.5464075533936156,0.873966875687803
1.0991735796609927,1.0592380105539165,0.36671619501962577,0.8563178671579323,0.7975371386961784,1.1350893188190836,1.0084443245920816,0.8716083149917035,0.2780125731398966,1.1370194250297025,0.41061910848052946,0.7166532165137023
0.9853310717095571,0.970806964548013,0.218347669486015,0.711181543119998,0.6695751888062513,1.021894701288879,0.882005231066341,0.7226627312129016,0.15081665585260073,1.0785353289254085,0.2824654438248113,0.5513795276314831
0.8461229012541326,0.8560247735944987,0.08556526078579463,0.5584904155733061,0.5313341237100343,0.8855027530213208,0.7406977758929595,0.5657694065851895,0.03815833610765769,0.9862720341833909,0.16668237567939984,0.38646793726978346
0.6919400914284936,0.7227997259993666,-0.02798902273521255,0.4053210310152281,0.3906721813429151,0.7362543953869265,0.5930761177376713,0.408383522089234,-0.05710223055973744,0.8659272942622438,0.0666509798866511,0.22896630782808505
0.531868091283072,0.5786772338977182,-0.12026870178258176,0.2581273704860281,0.25421838448946604,0.5830102343238596,0.4465228512088427,0.25703384294280146,-0.13350215245497532,0.726386496171174,-0.01560240812166327,0.08460931423875068
0.373686775784957,0.43083983325376396,-0.19072180607311584,0.12274084956886358,0.12737254078344323,0.4332848951474443,0.3072490068574721,0.11732271860075529,-0.19058292926020096,0.5772542302919434,-0.07940619332435578,-0.04218155603297513
0.2238704458178959,0.2861071838608232,-0.2371298163163239,0.004370318389786576,0.01430524270778751,0.2932470225501669,0.18029405117719038,-0.006073917244940332,-0.22654687743026697,0.4267850868855835,-0.12325596317846292,-0.1482980029889673
0.08758782818229338,0.15093606934132367,-0.2616441672590493,-0.09278201294841311,-0.0820421324053771,0.1677192806016733,0.06952588660426037,-0.10940654666522627,-0.24420877517284795,0.28187321522156233,-0.147755790281603,-0.23194491409822027
-0.03129792440478884,0.031236838643163897,-0.2684644740264016,-0.16827848967150125,-0.15995742237474156,0.06017835274877251,-0.02235914848242231,-0.19016169308511932,-0.24717173065698309,0.14805232357778417,-0.1565326114001709,-0.29264036429684537
-0.13022923330963018,-0.0701055633448004,-0.2614167141974465,-0.22310897265182025,-0.21895768016981396,-0.02724505818456698,-0.09383627976133119,-0.24886105105461684,-0.2387118368483793,0.029495679240588737,-0.1528977491076866,-0.3312156159880741
-0.20792371491390935,-0.15247570909569122,-0.24395322780520554,-0.2585570829152183,-0.25978917333849383,-0.09376622999721422,-0.14455229696830565,-0.28734164260889883,-0.22177817150941123,-0.07098389149524817,-0.13984553296757543,-0.34981511904225715
-0.26194856645463166,-0.21578092962716472,-0.21915271733665675,-0.2762668758649472,-0.2824075694114867,-0.13994642111087757,-0.1753255538965545,-0.30762908267551187,-0.198992797199121,-0.15193400332651444,-0.12005329953316889,-0.35184749271990734
-0.29385133566153365,-0.2604372198444277,-0.1897202477327344,-0.27824284128166277,-0.28833280837139913,-0.16768454814449155,-0.188145968396653,-0.31193252508569014,-0.17265076127321838,-0.21201460786342943,-0.09588139234770411,-0.33953072422598013
-0.30754143891749364,-0.2873692385402378,-0.15798724638832842,-0.26684990332342395,-0.28128956661679383,-0.17784019357825195,-0.18617502237654612,-0.3026446625743547,-0.14472009588408072,-0.25072528743356676,-0.06937316194432436,-0.3160008361747503
-0.3066090914099439,-0.2980103083949037,-0.12591150315228528,-0.2448134205256938,-0.2646250152544206,-0.17265665896667776,-0.17333218070052647,-0.28234172678011427,-0.11684181798075338,-0.2713561956515555,-0.0422549658460784,-0.2850989020679725
-0.29432530713087085,-0.29430241597628476,-0.09507717032740748,-0.21521918580133914,-0.24130882009921573,-0.1560266107488215,-0.15142530080404762,-0.2537834882452645,-0.09032992930894826,-0.27707769467486115,-0.015936168565920984,-0.2501275024380156
-0.27364189887681456,-0.2786962117397912,-0.06669476267045371,-0.18151342644063043,-0.21393314167430214,-0.13140356402694095,-0.12330962912983542,-0.21991325641578832,-0.06617141641104637,-0.27082465026907293,0.008490858393287103,-0.21385072484786297
-0.24719147824886914,-0.25415101002838403,-0.04160115739213863,-0.14740191059074242,-0.1847126352109895,-0.10180188256649852,-0.0918157153033179,-0.18385787964135578,-0.04502625062609552,-0.25529643180790434,0.03025073653877978,-0.1784941638911123
-0.2172874556526828,-0.22413478907257556,-0.02025959415713331,-0.11511905570815661,-0.15548445064877403,-0.06979677879616086,-0.05932518299671951,-0.14892739155509802,-0.027227388089810744,-0.23295691227319298,0.048885080387884756,-0.145744921191976
-0.18592404029845783,-0.19222915669353968,-0.0027596750840648086,-0.08551562168923363,-0.12770823263533884,-0.03752431380780015,-0.02777072992906023,-0.11757028539396314,-0.012780769734575478,-0.2060344682549002,0.06425249746802375,-0.11675160540528065
-0.15477624020095013,-0.16037981187929892,0.011182635254483358,-0.05919704487622165,-0.10246612052655335,-0.0066813973564924444,0.0013638721338434172,-0.09003460885813316,-0.001365321289440639,-0.17652197995111174,0.0765285883167129,-0.0921243322164675
-0.12519986217946968,-0.12992610933336382,0.022284749205891095,-0.03653022948906568,-0.08046274838647405,0.021474212139480933,0.027043777379379415,-0.06631595469727568,0.00782442557018575,-0.146176831168037,0.08622049893457784,-0.07193472434159183
-0.09823151185788034,-0.1019156754556757,0.03168080790424092,-0.017643547625407433,-0.06202524498734395,0.04612390759863421,0.048683065948139315,-0.04630306278892425,0.01567754635207232,-0.1165209093200099,0.09430223848520373,-0.055715911527323914
-0.07458859366460047,-0.07709255072876486,0.03980230860572787,-0.002426839260585478,-0.04710323380959238,0.06688823327627688,0.06614474393391873,-0.029777820138478094,0.02247543957030512,-0.088840605429488,0.10125070444376007,-0.04249875451092069
-0.05466931083260148,-0.05589718971775084,0.046939903885427646,0.009468587752364819,-0.03526883304183592,0.08382688476451375,0.07974074338371753,-0.016415260879202722,0.028461681292781527,-0.06418681412705317,0.10731805733498062,-0.03158248885594599
-0.038552665399410095,-0.03846646107034175,0.05335947351290447,0.018629957682711206,-0.025716655580877018,0.09743870899224459,0.09023192229773928,-0.005783566272229262,0.03385938630825372,-0.04337493365141101,0.11273527350021155,-0.02250923465422548
-0.02595608042910908,-0.02463364751683492,0.05930212445220988,0.02588302692202491,-0.017609906919458126,0.1085707348907068,0.09882806462939128,0.0026559352934453014,0.03887120812632932,-0.026920996779609633,0.11771214509741305,-0.01481252936293436
-0.015769941363384277,-0.013928445870116633,0.06498419086188348,0.0322542785089635,-0.010661401261239373,0.11781778493053677,0.10640941890470217,0.009548768300957886,0.043679338977471026,-0.01392454289109136,0.1224372801011586,-0.00807715937008859
-0.007318476031589393,-0.005576967025661994,0.07059723409495268,0.0381679636378575,-0.004576540843683199,0.1255869036775728,0.11300628470760526,0.01564731010557967,0.04844550981299656,-0.0034859962770065677,0.12707810230263414,-0.0019391599945445175
-0.0001847191944348159,0.0014904978464385637,0.076308042698933,0.043750574702766325,0.0009100128503582795,0.13224754010041093,0.11891797694033522,0.021583865358279587,0.05331099030507871,0.0049710679661503325,0.13178085130963946,0.0039141845140008135
0.006006066061927281,0.007883654816502847,0.08225863241582775,0.049186686971422214,0.0060338760954285085,0.13813147456173416,0.12440849658649146,0.027430131910211167,0.058396588846745534,0.011961062110382661,0.13667058254658765,0.009744340975009423
0.011586388325902003,0.01370966673223882,0.08856624618212777,0.05463579312864751,0.011000942923465764,0.14353281881831273,0.1297063694631134,0.033301372543927246,0.06380265255188018,0.01793638579619257,0.14185116725450478,0.0157615272771031
0.01684652786045223,0.019191192610598196,0.09532335412881213,0.06023230327635387,0.015987385123804057,0.1487080160210034,0.1350046462206814,0.039302386344261926,0.0696090672552208,0.023287426032579866,0.14740529249103024,0.02212471237806265
0.022034536603098863,0.024522263773255542,0.10259765358134805,0.06608554493354289,0.021139652243172512,0.15387584071475058,0.1404609023431158,0.04552321761400106,0.07587525751236082,0.02834255719704251,0.15339446113041674,0.028941616304828513
0.02735623816591996,0.029868283846608563,0.11043206905968983,0.07227976303630539,0.02657447158569522,0.15921739883858532,0.1461972381477778,0.052039155873882616,0.08264018659974869,0.033368141035576976,0.15985899186353036,0.03626871015350005
0.03297522783555137,0.035366028761777545,0.11884475227827994,0.07887411993782158,0.03237884821289163,0.16487612772562568,0.15230027878546867,0.05891073586259583,0.08992235651468755,0.03856852666267732,0.16681801919784958,0.04411121608933604
0.03901287257318734,0.041123646754606835,0.12782908214604963,0.08590269540836248,0.03861006494367715,0.17095779610307713,0.15882117424043105,0.06618373753678317,0.09771980797533708,0.04408605056133676,0.174269493457468,0.052423107346755614
0.045548311014579165,0.047220658365662645,0.1373536647664171,0.09337448663528738,0.045295682354361703,0.17753050409223214,0.16577559933034733,0.07388918607103791,0.10601012042071048,0.05000103658304579,0.18219018078309066,0.0611071082293362
0.052618453470035784,0.05370795644023471,0.14736233343728827,0.10127340822304572,0.05243353877865056,0.1846246832084696,0.1731437537063406,0.08204335185790529,0.11475041201067701,0.05633179594779347,0.1905356631320365,0.07010591894208915
0.060217981924424145,0.06060780612833563,0.1577741486510578,0.10955924966067665,0.05999175030764439,0.19223309636125596,0.18087036185297434,0.09064775050788286,0.1238773396259604,0.06303462724406683,0.19924033827823787,0.07953110677850297
0.0682993500371687,0.06791384488470105,0.1684833980946071,0.11823687012525498,0.06790871078983936,0.20031083785414494,0.18891747144774848,0.0996891428494197,0.13330709886814016,0.07001222092332678,0.20821741981223987,0.08938858584905332
0.0767727831422517,0.07559108246878955,0.17948881196696512,0.1273277908955952,0.07610662740907563,0.20877533338477636,0.1973459475477668,0.10913962790002729,0.14296209456868197,0.07732419512164151,0.217443897163659,0.09967582590296034
0.0855425814512463,0.08360530092591258,0.190882613851141,0.13682893695443832,0.08464494043202019,0.2175140042131347,0.2061586961511153,0.11899677364813692,0.15293988913717535,0.08502967667407545,0.22700941081336354,0.11038666362443998
0.09471540822327913,0.09199814660045422,0.20264009394660384,0.1467337770564293,0.09354749104328658,0.22659272176235845,0.21535266862597427,0.12927216930672783,0.16324606799568703,0.09313491623415893,0.23689636013827814,0.12151130263270414
0.10431576018096221,0.10077380701934885,0.21473353100144577,0.15703232372811643,0.10280696015040618,0.2360668682117602,0.22492156447362013,0.13995486741636706,0.17385473657504374,0.10164298039504496,0.24708227803342717,0.13303631348196024
0.11433920884258465,0.10992974780844983,0.2271325694765389,0.16771113326795173,0.11241306381228319,0.24592965181383292,0.234855831328425,0.1510307820072241,0.1847379279216919,0.11055375168950983,0.2575424299417263,0.14494463366141142
0.12477793364316606,0.11946028530890705,0.23980421954553469,0.17875330574629086,0.12235255323919603,0.2561710738367426,0.24514266495785705,0.16248268859907153,0.19586560269769662,0.1198639285899517,0.2682498138539825,0.1572155675952571
0.13562072193445762,0.12935658657716745,0.25271285709486396,0.1901384850053932,0.1326092147927969,0.266777928564327,0.2557660092624808,0.17429022420128426,0.20720564918074239,0.1295670255083919,0.27917516030889367,0.16982478664269193
0.14685296898494127,0.1396066693849748,0.2658202237237377,0.20184285865942111,0.14316386998611175,0.2777338032960969,0.2667065562759562,0.18642988731284094,0.2187238832641327,0.13965337279647447,0.29028693239304887,0.18274432909790667
0.15845667797554108,0.15019540222059946,0.2790854267464088,0.21383915809469617,0.15399437548527103,0.28901907834728924,0.27794174616837464,0.19887503792056327,0.2303840484537029,0.1501101167422372,0.30155132573788845,0.19594260019550466
0.1704102914306581,0.161104552620186,0.29246502811519964,0.2260966684979231,0.16507569111643794,0.30061092916110643,0.2894458983113777,0.21159582836873914,0.24214769455758023,0.16092109266737725,0.3129321490524768,0.20938458499825807
0.18268824403579598,0.172312915381906,0.3059132803168948,0.23858125545921963,0.17638006027565095,0.3124833319120994,0.30119055896974933,0.2245590199689788,0.25397385587248367,0.17206648827770113,0.3243905071989802,0.22303241314906558
0.19526143783826821,0.18379617631851286,0.31938187569619625,0.251255336702266,0.18787681821535404,0.32460705755170416,0.3131441318251128,0.23772817788071737,0.2658193931607489,0.18352320140554484,0.33588513797418085,0.23684475873430705
0.20809737034973091,0.19552687544869662,0.3328198732685225,0.26407786888338186,0.19953232961886008,0.33694967846945717,0.32527177534099494,0.25106374648721236,0.2776390988954622,0.1952649485874317,0.3473725251485855,0.25077664776080555
0.22116008712243088,0.2074744202908574,0.3461737023682235,0.2770043291616381,0.21130996681434625,0.34947560056902444,0.33753542808418585,0.26452311693464997,0.28938571285638753,0.20726227559266144,0.3588069495974497,0.26477940097431474
0.23441022365090083,0.21960507411726898,0.3593871594251669,0.2899867314827544,0.22317012902407946,0.36214603492712943,0.3498937863518165,0.27806056745734137,0.30100990835004177,0.21948254812067844,0.3701404441234872,0.27880068438277383
0.2478050233429502,0.23188195091647018,0.3724014065822658,0.30297363356301243,0.23507025062011414,0.37491898563850423,0.3623022945759587,0.29162723778412086,0.3124602862996959,0.2318899478113162,0.3813227740810275,0.2928037126774986
0.2612983375231192,0.2442650153922966,0.38515497169521223,0.3159101368905968,0.2469648011258783,0.38774924981355363,0.37471314532177974,0.3051711291334245,0.3236833752442409,0.2444454722440314,0.39230143737229095,0.30676934158657937
0.27484062543267934,0.2567110829638808,0.397583748332479,0.3287415846213004,0.2588052852161737,0.4005884175783546,0.38708500555790304,0.31863710421329233,0.334623631338186,0.25710725962542696,0.40302166444738924,0.32061804596549337
0.2883789542296335,0.2691738197656519,0.40962099577531713,0.34145770660344665,0.27054024271717614,0.41338487207465696,0.3994067526932345,0.3319668872213663,0.3452234383516604,0.2698633683449629,0.41342641830432514,0.3342705752104983
0.30185699898871515,0.28160374264733606,0.4211973390177584,0.3539958212527459,0.28211962414273734,0.4260837894598821,0.41161123498961677,0.34509906384489164,0.3554231076704116,0.2826728735172099,0.42345639448899275,0.3476512779386897
0.31523563962623385,0.29397882208670634,0.4322592715040982,0.36627556182650195,0.29353297612051754,0.43863036033193736,0.42362626509656043,0.35796908126071614,0.36516087829580646,0.2954672835175689,0.4330641870970611,0.3606881019880012
0.32849387545382747,0.30626677948935743,0.442784627118098,0.37822094341278095,0.30472204162601246,0.45101278763878566,0.43538309282560944,0.37050949055940435,0.3743992437775176,0.3081803544505518,0.44223151574107106,0.37331259441720466
0.34155223103689164,0.3183941709588145,0.4527028392241648,0.3897603629304116,0.3156160017377248,0.46317161616303143,0.44681640515034277,0.3826964821120814,0.3831090851807947,0.32074809014978184,0.4508979503929596,0.38545990150591025
0.35433252584987934,0.33029096788430007,0.46194596907898927,0.40082659912898605,0.32614822972798163,0.4750300601301608,0.45786432620637285,0.39448496975341035,0.3912311248414471,0.3331087421779933,0.4590044402360591,0.39706876875456604
0.36676074861862795,0.34189061978901825,0.47045216642708554,0.4113568125888586,0.3362562910629352,0.48651576593387635,0.4684684172913467,0.4057955786508218,0.3987112255660573,0.34520280982703194,0.4664971006632279,0.4080815408844587
0.37876705732035865,0.3531300543301538,0.4781656695007919,0.4212925457211458,0.3458819434025624,0.4975608121360963,0.47857367686494556,0.4165545493294637,0.4055005533827008,0.35697304011785475,0.47332721327685234,0.41844416183771277
0.39028577918367646,0.3639496772988722,0.4850368050202702,0.4305797227677283,0.3549711366006654,0.5081017094669551,0.4881285405488843,0.4266937376722017,0.4115555775409462,0.36836442780053,0.4794512258888456,0.42810617477729074
0.40125541068856996,0.3742933726203205,0.49102198819350595,0.4391686498012478,0.3634740127048704,0.5180794008248036,0.49708488112691274,0.43615061491961904,0.4168380705118542,0.37932421535423694,0.4848307525206472,0.4370207220869942
0.41161861756641155,0.38410850235362604,0.496083722716308,0.4470140147251098,0.37134490595662917,0.5274392612762088,0.5053980085448141,0.44486826767001675,0.42131510798797833,0.38980189298726664,0.48943257340322466,0.44514454537146175
0.4213222347999579,0.3933459066918979,0.5001906007723098,0.45407488727348216,0.3785423427912181,0.5361310980559535,0.5130266699104066,0.4527953978794132,0.4249590688833653,0.3997491986370206,0.49322863497707226,0.45243798545617075
0.43031726662334935,0.4019599039622255,0.503317303032968,0.46031471901129545,0.3850290418377385,0.5441091505670367,0.5199330494935419,0.45988632286154474,0.42774763533355403,0.40912011797001224,0.4961960498922112,0.45886498238743706
0.4385588865221094,0.4099082906256795,0.5054445986575626,0.4657013433342428,0.3907719139191159,0.5513320903806739,0.5260827687261062,0.46610097528786476,0.42966379269557603,0.4178708843818662,0.49831709700819016,0.4643930754324138
0.4460064372331462,0.41715234127731166,0.5065593452931981,0.4702069754687805,0.39574206205210194,0.5577630212362961,0.5314448862020197,0.47140490318754463,0.4306958295479561,0.425959978997318,0.49957922139408406,0.4689934030790933
0.4526234307447516,0.4236568086461544,0.506654489074802,0.47380821247212696,0.39991478144727166,0.5633694790415514,0.5359918976772369,0.4757692699474737,0.4308373376907116,0.4333481306702147,0.499975034328496,0.47264070303630523
0.4583775482966008,0.42938992359522143,0.5057290646251256,0.4764860332322636,0.4032695595090262,0.5681234318723029,0.5396997360697467,0.4791708543122582,0.430087212145352,0.43999831598351435,0.49950231329955525,0.4753133122337178
0.46324064037975327,0.43432339512150747,0.5037881950547445,0.47822579846793434,0.40579007583559057,0.5720012799726303,0.542547771459572,0.48159205038422254,0.4284496511548801,0.4458757592492865,0.49816400200491845,0.4769931668218376
0.46718872673665246,0.43843241035598796,0.5008430919620575,0.47901725072864626,0.40746420221901514,0.57498385575483,0.5445188110887693,0.4830208676234082,0.425934156183791,0.4509479325087123,0.4959682103517695,0.47766580217200916
0.47020199636112486,0.4416956345636191,0.496911055433287,0.47885451439466853,0.4082840026451753,0.5770564237994138,0.5455990993614301,0.48345093084757484,0.4225555319180732,0.4551845555320831,0.4929282144568191,0.4773203528764149
0.4722648074983816,0.444095211143339,0.4920154740424798,0.4777360956770335,0.40824573329377073,0.5782086808551098,0.5457783178436798,0.48288148023219957,0.418333886265207,0.4585575958188027,0.48906245664630543,0.47594955274807604
0.47336568764501696,0.4456167616280657,0.48618582485150535,0.47566488261753587,0.40734984253832623,0.5784347558388626,0.545049585263678,0.48131737131047686,0.413294630354166,0.4610412685973852,0.484394545455993,0.47350038000081285
0.47349733354900964,0.4462493856846989,0.4794576734100577,0.4726481450887334,0.40560097094619174,0.5777332098358325,0.5434094575116182,0.4787690749733189,0.4074684785354162,0.46261203682545643,0.47895325563117414,0.469958475752812
0.47265661120972197,0.4459856611141189,0.4718726737556543,0.4686963637258242,0.40300795127854133,0.576107036099396,0.5408277107847221,0.475252677469356,0.40089144838091656,0.4632254671194083,0.4727725281266677,0.46537995648231667
0.47084455587789986,0.4448216438511875,0.46347856841363627,0.4637744337412717,0.3995838084903745,0.5735636600511456,0.5372777002346054,0.4707898804049353,0.39360486068411843,0.4627921191600577,0.46589147010682014,0.45982074095203684
0.4680663720556735,0.4427568679647464,0.4543291883971688,0.45790488399101387,0.3953457581492098,0.5701149392808909,0.5328095079814937,0.46540800074412186,0.38565533945996633,0.46134349568795535,0.45835435494550447,0.45333654640607796
0.4643159641877483,0.4397609287600419,0.4444844532072399,0.45114927903869323,0.3902781804324102,0.5657771635466559,0.527474470955292,0.4591399708086987,0.37709481194489725,0.45892351534529274,0.4502106222261213,0.44598288856994134
0.4595573006257789,0.43581647992255634,0.4340103708326623,0.44356841607583286,0.3843916367539158,0.5605358567555011,0.5213236604473703,0.4520243382781659,0.3679805085968404,0.45557612788688684,0.44151487774159776,0.4378150816505252
0.45384019148989824,0.43097471456778946,0.4229431920877929,0.43522232492183655,0.37774352048722626,0.5543934602598721,0.5144078821105643,0.44410526618974155,0.3583749630952188,0.451345314180179,0.4322953240381241,0.42888823833612283
0.44722319149259937,0.4252870858155486,0.411297234891613,0.4261702680239895,0.3703902961894715,0.5474110114093623,0.5067776759591751,0.4354022880200936,0.34832513129930676,0.4462750862052342,0.4225646132141113,0.4192572697964243
0.4397642567612102,0.4188047106310262,0.39915037663890285,0.4164707404574571,0.36238749960141065,0.5396488114508975,0.49848331636896887,0.4259223302277787,0.3378344399889114,0.44040948705474314,0.41238847730336753,0.4089768856825155
0.4315207448378945,0.41157836982480017,0.38657879529750605,0.40618146992528575,0.35378973764743255,0.5311662385679424,0.48957481207717823,0.41573826698685695,0.3269666562934899,0.4337925909340201,0.4018309967311996,0.3981015941268781
0.4225494146796505,0.40365850805283376,0.37365564569854715,0.39535941675840264,0.3446506884355558,0.5220217478805027,0.48010190618250037,0.40492250027596755,0.3157877830589151,0.42646850316100426,0.3909537206292908,0.3866857017433905
0.4129064266583116,0.39509523381647565,0.3604510595364322,0.38406077391561616,0.33502310125742846,0.5122728714451235,0.4701140761450981,0.3935453349552669,0.30436092029094436,0.41848136016625953,0.3798156668357009,0.3747833136273267
0.4026473425605466,0.38593831946245977,0.347032145368848,0.372340966983615,0.3249587965883282,0.5019762182548902,0.45966053378660027,0.38167497876642953,0.29274626515522,0.4098753294929735,0.3684733218948668,0.362448333355357
0.39182712558786004,0.37623720118290566,0.33346298861676243,0.3602546541769688,0.3145086660871622,0.4911874742394276,0.4487902252901004,0.36937754233264847,0.2810011119772688,0.4006946097969592,0.35698064105760186,0.3497344629855472
0.3805001403565903,0.36604097901531835,0.3198046515644249,0.3478557263381279,0.30372267259646757,0.4799614022649013,0.43755183120015795,0.3567170391586341,0.2691798522425025,0.3909834308466538,0.3453890482810957,0.33669520305736006
0.3687201528979121,0.35539841684258777,0.30611517335936544,0.33519730693742394,0.2926498501424108,0.46835184213401587,0.4259937664227978,0.3437553856306147,0.25733397459621726,0.38078605352311895,0.3337474362289153,0.32338385259165414
0.3565403306578344,0.34435794239298995,0.2924495700123954,0.3223317520730688,0.281338303934788,0.4564117105860167,0.4141641802255097,0.33055240101633715,0.24551206484359459,0.3701467698200404,0.322102166271004,0.3098535090906832
0.34401324249720266,0.33296764724018635,0.27885983439760803,0.30931065047115597,0.2698352103670255,0.44419300129668954,0.4021109562372508,0.3171658074650667,0.2337598059497005,0.3591099028437301,0.3104970684836821,0.2961570685380991
0.3311908586916953,0.32127528680322215,0.2653949362523754,0.2961848234856581,0.25818681701617746,0.43174678487835805,0.3898817124484403,0.3036512300075841,0.2221199780394846,0.34771980681312153,0.2989734416496453,0.28234722539894674
0.31812457372936775,0.30932827396352375,0.2521008043066331,0.28300431842219614,0.24643844550163505,0.41912320946487414,0.37752378994721014,0.2900622048692939,0.21063245750574897,0.3360208841442272,0.28757007050840194,0.26847645121176394
0.30486563008623,0.2971735604133997,0.2390199940902614,0.26981828443583344,0.23463454462461333,0.4063715115857265,0.3650840435413409,0.2764503339996195,0.19933420042744215,0.3240579030271001,0.27632354641862544,0.2545965966444334
0.2914650788689176,0.2848576476755683,0.22619171878482497,0.25667498405682604,0.22281868543292507,0.39354001515612963,0.3526088612038422,0.2628652707203883,0.18825924410965247,0.3118759679314949,0.2652682375772645,0.2407589284524676
0.2779733875039671,0.2724266969449141,0.21365215675126709,0.24362190807837866,0.21103351202703924,0.38067612141030244,0.3401443579049288,0.24935457667006536,0.17743872243414036,0.29952022560963015,0.2544359921660044,0.2270144978762556
0.2644404248327499,0.2599265332617072,0.20143446321381253,0.23070577992157748,0.1993207396910537,0.36782630851900394,0.32773638297628055,0.23596371636863275,0.16690086644255117,0.2870358539263491,0.2438561270729072,0.21341415463758187
0.2509154611114721,0.24740264551160288,0.18956877025996605,0.21797255563538903,0.1877211548926963,0.3550361315895336,0.31543052011104344,0.2227360572175911,0.15667100433641423,0.27446806185911976,0.23355542789241113,0.20000854693962755
0.23744716801117569,0.23490018642564178,0.17808218684051516,0.2054674238966609,0.17627461528332472,0.3423502226657304,0.3032720873638282,0.2097128694999592,0.14677156147714432,0.2618620894980344,0.2235581489253313,0.1868481214669697
0.22408361861773723,0.22246397258025033,0.16699879876952675,0.19323480601012133,0.16502004969792555,0.3298122907279733,0.2913061371507117,0.19693332638027292,0.13722206038604065,0.24926320804580968,0.21388601317885975,0.17398312338558103
0.21087228743186906,0.21013848439724003,0.1563396687243503,0.18131835590837914,0.1539954581551158,0.3174651216931811,0.2795774562492358,0.18443450390458677,0.1280391207442873,0.23671671981778675,0.20455821236656468,0.16146359634283103
0.19786005036911763,0.19796786614380776,0.1461228362456153,0.16976096015192468,0.14323791185714171,0.30535057841481306,0.26813056579840794,0.1722513810004734,0.11923645939295281,0.22426795824193163,0.19559140690839152,0.1493393824674843
0.18509318475986586,0.18599592593253625,0.13636331773723293,0.15860470566609453,0.13278355318987872,0.293509600682868,0.25700972129870125,0.16041683947702284,0.11082489033299098,0.21196228785883475,0.18699972593066191,0.1376589611706147
0.17261736934933075,0.1742661357213928,0.12708557711457083,0.14787974185195554,0.12266759572283281,0.28198220522388495,0.24625891261205388,0.14896166402484334,0.10281232472523967,0.19984510432171065,0.17880398496863892,0.1264386276812621
0.16047768429756507,0.16282163131373084,0.11831467107084415,0.1375919071112041,0.11292354311566617,0.27080748570094265,0.23591006485229848,0.13791454221606134,0.09522053768105775,0.1879618343963989,0.17102747115773528,0.11567825974638053
0.1487186111794565,0.15170521235828907,0.11003804641208444,0.12774361359410602,0.10356746736314265,0.26002349736731645,0.22596503481766758,0.12730570543110697,0.08808267733067116,0.17635793596136318,0.16366102257664764,0.10538052691965082
0.13737749341399927,0.14095933648968603,0.102242092982785,0.11833631876953662,0.09460117225337877,0.24965577000858985,0.2164271491332222,0.1171754010572251,0.08138171746417076,0.16507889800769196,0.1566941333279464,0.09554707923206124
0.12646382801885767,0.13061090082187726,0.0949133248245585,0.10937052542497953,0.08602539678890277,0.239708614073466,0.20729891376982645,0.10752289192337887,0.07509916709045611,0.15417024063909787,0.15011637170805137,0.08617854719190701
0.11598164376715597,0.12066226896233653,0.08803838017613652,0.10084578166652708,0.0778401265420968,0.23018349630841284,0.1985818870773982,0.09834030135071552,0.06921725594012819,0.14367745338129312,0.14391738020723133,0.07727454178479051
0.10593409391563507,0.11111685091796736,0.08160402147337088,0.092760680918881,0.07004459365519809,0.22108103937285759,0.1902766797849092,0.08961956104055403,0.06371893446548942,0.13361904968839883,0.1380868755096044,0.0688336544736213
0.09632334121231732,0.10197712990410572,0.07559713534923222,0.08511286192535072,0.0626372768402984,0.21240102183918688,0.1823829550003844,0.0813524110743853,0.058587873840543724,0.12398563127347267,0.13261464849313803,0.06085345719861609
0.08715055789650662,0.09324466234451956,0.07000473263381098,0.07789900874785541,0.05561590137934392,0.20414237819274586,0.17489942821090282,0.07353039991387222,0.053808465960996345,0.11477470968330265,0.1274905642296481,0.053330502377299
0.07841592569878765,0.08492007787141008,0.06481394835431689,0.07111485076692255,0.04897743912413552,0.1963031988318394,0.16782386728259688,0.06614488440084951,0.0493658234442542,0.10598330131330747,0.12270456198480038,0.04626032290450083
0.07011863584102698,0.07700307932541031,0.06001204173507892,0.06475516268168828,0.042718108496328504,0.18888073006773093,0.1611530924606532,0.05918702975732387,0.04524577962942543,0.0976079274075366,0.11824665521810937,0.039637432152360146
0.06225688903637203,0.06949244275558643,0.055586396197545664,0.05881376450989794,0.036833374487432985,0.18187137412464346,0.15488297636931145,0.05264780958547363,0.04143488857731953,0.08964461405867029,0.11410693158293907,0.03345532397032224
0.05482789548925158,0.06238601741943654,0.05152451936028528,0.05328352158790511,0.03131794865881352,0.17527068913975868,0.14900844401186494,0.046518005867649544,0.037920425070447863,0.08208889220801979,0.1102755529265022,0.027706472685139632
0.04782787489537572,0.055680725782891696,0.047814043038984864,0.048156344570672645,0.026165789141689235,0.16907338916321762,0.1435234727706614,0.040788208966373675,0.03469038461302285,0.07493579764552716,0.10674275528986098,0.02238233310087221
0.04125205644173593,0.04937256352031504,0.04444272324645161,0.0434231894317717,0.0213701006371337,0.1632733441581206,0.13842109240710176,0.035448817624340205,0.031733483430958324,0.06817987100976515,0.10349884890792678,0.01747334049888694
0.03509467880660486,0.04345659951450263,0.04139844019261164,0.03907405746338243,0.016923334416075648,0.15786358000052675,0.1336933850616404,0.03049003896441563,0.029039158471869966,0.061815157787937364,0.10053421820945967,0.012968910637857847
0.029348990159536497,0.03792697585668291,0.03866919828451067,0.03509799527629371,0.012817188319297622,0.15283627847945447,0.12933148525378566,0.025901888489637672,0.026597567405074463,0.05583520831587841,0.09783932181706945,0.008857439753766199
0.024007248161366,0.0327769078465167,0.03624312612631389,0.03148309479990323,0.009042606757437158,0.1481827772968809,0.1253255798820996,0.02167419008321637,0.02439958862159008,0.050233077778053595,0.09540469254721488,0.005126304559900584
0.019060719964210132,0.027998683992097487,0.03410847651930562,0.028216493282217363,0.005589780710986371,0.14389357006774314,0.12166490822419776,0.017796576008533512,0.022436821234136737,0.04500132620755897,0.0932209374102037,0.001761862246856387
0.014499682211466447,0.023583666009950963,0.03225362646189018,0.025284373289851128,0.002448147730291857,0.13995830631993658,0.11833776193674943,0.01425848690914286,0.020701585077135435,0.04013201848612153,0.09127873761019295,-0.00125054951746348
0.01031342103781433,0.019522288825035993,0.030667077149590702,0.022671962708028594,-0.0003936080644451582,0.13636579149431594,0.1153314850554777,0.011049171808770148,0.019186920706708924,0.03561672434409914,0.08956884854518876,-0.003926612587849012
0.006490232069214001,0.015804060570743274,0.029337453975050092,0.020363534740582445,-0.0029475559831690207,0.13310398694469527,0.11263247399515912,0.008157688111312917,0.017886589400681344,0.0314465183604803,0.0880820998070466,-0.006283028341783112
0.003017420422907124,0.012417562588896232,0.02825350652803062,0.01834240790995418,-0.00522651876596913,0.13016000993784754,0.11022617754962409,0.005572901600840385,0.016795073158578026,0.027611979962884562,0.08680939518147075,-0.008337517679441582
-0.00011869929258334737,0.00935044942975095,0.02740410859541409,0.016590946057193866,-0.007244072583080676,0.1275201336535049,0.1080970968917566,0.003283486441594278,0.015907574701626067,0.024103193427562244,0.08574171264801514,-0.010108821023692888
-0.0029328029774530057,0.006589448851995843,0.0267782581612015,0.015090558341960476,-0.0090145470348842,0.12516978718435856,0.10622878557349455,0.001277925177987422,0.015220017472753743,0.020909747879394466,0.08487010438008208,-0.011616698320098413
-0.005440557040616455,0.004120361822751998,0.026365077406513372,0.01382169924252181,-0.010553025151905515,0.12309355553605884,0.10460384952582877,-0.0004554912653948104,0.014729045636591009,0.018020737291893005,0.08418569674492388,-0.01288192903691224
-0.007658618399706794,0.0019280625175727248,0.026153812709589625,0.01276386855575426,-0.01187534339481591,0.12127517962721512,0.10320394705880476,-0.0019286635837955156,0.01443202407946909,0.015424760487200798,0.08367969030364163,-0.013926312165081672
-0.009604634481075885,-3.5016795557284957e-06,0.026133834645789864,0.011895611397143261,-0.012998091654432182,0.11969755628939631,0.10200978886152096,-0.0031536840922854813,0.014327038409420687,0.013109921136091291,0.08334335981118528,-0.014772666218246432
-0.011297243219794327,-0.0016913101762150004,0.026294637987592732,0.011188845982890598,-0.013938613251716407,0.11834273826712971,0.1010011380021299,-0.004142836725764043,0.014412894956180092,0.01106382775796916,0.08316805421635452,-0.015448729053074572
-0.012756073059651596,-0.0031532691715540043,0.026623483808367987,0.010616445186721587,-0.014715004937776275,0.11719193421790236,0.10015587561778766,-0.00490859703895849,0.0146891207711828,0.009273593720869507,0.08314334325427075,-0.0159888971672218
-0.014001742953155549,-0.004408211656289106,0.02712682451397324,0.010196667122901428,-0.015355417241490149,0.11622550871215993,0.09944110688210926,-0.0054636322064240276,0.015155963627565796,0.007725837241458398,0.08327593027667965,-0.016377948664310003
-0.015055862361533154,-0.005475897412704499,0.027839534236043892,0.009951548555937372,-0.01589119140833033,0.1154208103594248,0.09886266416373592,-0.005820801022544246,0.015814392020167725,0.006406681385032741,0.08359533323769956,-0.016593302439769933
-0.015951686993098874,-0.00637716876682554,0.028796601579640792,0.009903188683044763,-0.016299559198380286,0.11473527354460965,0.09843937733593999,-0.005993153901530619,0.016666095165528385,0.0053017540655204195,0.0841311074988837,-0.016612311488807985
-0.016701039599496537,-0.007144215479300521,0.030032182163595034,0.010073749134147348,-0.01655443764613276,0.11417939735548444,0.09819026723087064,-0.0059939848127628596,0.017712489709484566,0.004396188045479775,0.08491220466956079,-0.016412262906405913
-0.01728277383982602,-0.007777449954523813,0.031579598620507326,0.01048545397187698,-0.016630289681306233,0.11377942004478336,0.0981345456395534,-0.005829662111731042,0.01894027931696594,0.003674620936100443,0.08596697260683453,-0.015970377887320586
-0.01767540861686962,-0.008258925687129142,0.03347134059674805,0.011160589691574107,-0.01650212412884512,0.11356117754351945,0.0982916153118902,-0.005473686305753107,0.020393044683792327,0.0031211951972025345,0.08732315541558411,-0.015263811726084516
-0.017857326978558522,-0.008570462869477243,0.03573906475245785,0.012121505221286853,-0.01614549570891952,0.1135501034609856,0.09868106995665947,-0.004892193333805998,0.02213135445473174,0.0027191903140595212,0.08900789344846384,-0.014269653817005495
-0.017806776117973343,-0.00869364839165534,0.03841359476154696,0.013390611921771862,-0.015536505036925413,0.11377122908475398,0.0993226942415162,-0.004051978659353939,0.0242102619509159,0.002461760176367261,0.09104772330590312,-0.01296492765416653
-0.01750186737334382,-0.00860983584147788,0.04152492131169549,0.014990383586493928,-0.014651798623484672,0.11424918338067656,0.10023646379299171,-0.002920497270348791,0.02667930516983983,0.0023695761299912577,0.09346857783610711,-0.011326590831426163
-0.01692057623605122,-0.008300145502567528,0.04510220211187011,0.016943356445501705,-0.013468568877561054,0.11500819299305728,0.10144254520028054,-0.001465863682928265,0.02958250679311333,0.0024666357389928244,0.09629578613094064,-0.009331535036535969
-0.01604087894098156,-0.007745431611454265,0.04917389019238875,0.01927219531492928,-0.011964607297399754,0.11607208519083151,0.10296136064879782,0.00034308492631098653,0.03295850648228596,0.002776909523678341,0.09955400329221349,-0.006956485650546552
-0.014841099993595062,-0.006926199049754478,0.05376806033899595,0.021999861901288185,-0.010118439804325342,0.11746429536353613,0.10481375236744873,0.0025366280927647685,0.03684089747934517,0.00332414293290925,0.1032670317359149,-0.0041777462984033745
-0.013299535247360562,-0.00582269369856441,0.058912055047437496,0.025149432261196432,-0.007909179961766011,0.11920785889129461,0.10702080427162555,0.005144336278014104,0.04125786153494413,0.00413207112191812,0.1074580150029178,-0.0009714759054786128
-0.011394344700896128,-0.004414928136706916,0.06463238382722902,0.028744044883980052,-0.005316487228375688,0.12132540883250983,0.1096037912355966,0.008195120419152555,0.04623206507609963,0.005224480038584671,0.1121494928818705,0.0026862325030798826
-0.009103554222216072,-0.0026826830684085062,0.07095471977745102,0.032806882144045764,-0.0023205628356678986,0.12383916874618882,0.11258417329032405,0.011717220527027223,0.051780660343982834,0.006625204445787239,0.11736338615085673,0.0068193611614725145
-0.00640506264362035,-0.0006055131978692285,0.07790388549690912,0.03736109398153883,0.001097867174599875,0.12677092315741187,0.11598357174877873,0.01573815877055008,0.057915290075674294,0.008358119783823394,0.12312093379274235,0.011452006073946927
-0.003276635754731577,0.001837257744503959,0.0855038650134463,0.042429862518920725,0.004957537588848477,0.13014204256305512,0.11982378941969475,0.020284779198361833,0.06464208354030652,0.010447149060177737,0.12944274615246493,0.01660834440930827
0.0003040965084675292,0.004666539329574892,0.09377780936626985,0.04803643229833444,0.009276637301168034,0.13397349513323273,0.12412682006660729,0.02538326632660796,0.07196165468417465,0.012916266073592985,0.13634882981202112,0.022312619243158978
0.004359640064845039,0.007903474430480192,0.10274803660835725,0.05420411029463109,0.01407280931042315,0.13828584671633898,0.12891484841192857,0.031059145146946306,0.07986910212993749,0.015789495415458998,0.14385858760118309,0.02858913955132619
0.008912636688119799,0.011569439222629922,0.11243603180645592,0.060956265915370136,0.019363150720252433,0.14309926083904737,0.13421025013694646,0.03733728112654738,0.08835400917661725,0.01909091246981234,0.15199081859749766,0.035462280209862085
0.013985864006861548,0.015686043183707157,0.12287672456461607,0.06831633100081928,0.02516421273906861,0.1484334987063107,0.14003559188182618,0.044241880208094206,0.09740044379959989,0.022844643413337043,0.16077392072671814,0.04295648199504317
0.019602235504490462,0.02027512909366835,0.13411784457590553,0.07630779982395433,0.03149200068005894,0.15430791920136133,0.14641363124560905,0.05179648880978245,0.10698695865063446,0.027074865215363893,0.17025340033798278,0.0510962515833704
0.02578480051927773,0.02535877303474264,0.14605789055157908,0.08495422909045904,0.038361973961183904,0.16074147888571128,0.1533673167862122,0.060023993825319866,0.11708659105783346,0.03180580563787075,0.18034765809746947,0.05990616155156944
0.032556744244346,0.030959284391433427,0.15857648479910108,0.0942792379387265,0.045789046105179795,0.16775273199915244,0.16091978802043086,0.06894662262392794,0.1276668630256744,0.037061743235482926,0.19095556365923297,0.06941085037659159
0.039941387727667685,0.037099205850516175,0.17155256321980397,0.10430650793985706,0.053787584739555916,0.17535983045975562,0.16909437542393543,0.07858594305033954,0.13868978123499667,0.042867007355472324,0.2019752775936986,0.07963502243561162
0.04796218787206654,0.04380131340104003,0.18486437530889205,0.11506430637055831,0.062371411596596066,0.18358052386387114,0.1779146004312731,0.08897431990992474,0.15018004049390643,0.04924597813775804,0.21330425138766487,0.09060344800602914
0.05664273743521697,0.05108861633432723,0.19838948415544144,0.12655919773996696,0.071553802513358,0.19243215948612927,0.18740417543586757,0.10017108354505383,0.1620589622889516,0.05622308651490621,0.22483922744430224,0.10234705959861772
0.06600676502964413,0.05898435724397321,0.21200476644239813,0.13868251102797305,0.08134748743167387,0.2019316822794395,0.19758986006301865,0.11208280399710795,0.17413441040998698,0.06382281421213017,0.23647623908315366,0.11480501041260664
0.07607813512272424,0.06751201202584654,0.22558641244657984,0.15131096548171924,0.09177957528002338,0.21209563487499056,0.2084317287266875,0.12459038820720585,0.1862253555515935,0.07206969374728997,0.24811061054013425,0.1278510645839205
0.08688130527858835,0.0766952898780891,0.23900992603867532,0.1643211561739823,0.10279613249588107,0.22294757101794463,0.2198249572733161,0.13757431976791873,0.19816187847226388,0.08098830843089307,0.259636956967532,0.1413583828746532
0.09843608182755004,0.08655974334387868,0.252150124683244,0.17758955400317347,0.11426413274519993,0.23448272321554356,0.23166243263582678,0.1509146589232711,0.20978516999440266,0.09063657665616785,0.2709491844340067,0.1551996812778567
0.11065885800141509,0.0971089928246435,0.26488113943871644,0.19099250569333823,0.12605287547859437,0.24657519793175353,0.24383577043924418,0.16449104256874011,0.22094753100432546,0.10108021270845599,0.2819404899245905,0.1692472310175404
0.12343289264546574,0.10825572436667405,0.2770764149573947,0.2044062337941566,0.13803447836226237,0.2590896429483972,0.25623531500069396,0.17818268425125577,0.23151237245225972,0.11220722387431012,0.29250336134068833,0.18337285854867086
0.13664043813238336,0.119897748911221,0.2886087094854511,0.217706836680943,0.15008387727798528,0.27189282031573375,0.26875013932940384,0.19186837416920136,0.2413542153523442,0.12389562761302576,0.3025295775000771,0.19744794555717265
0.1501627403622484,0.13193133224372197,0.2993500948629296,0.2307702885546463,0.16207882632312826,0.2848536063524581,0.281268045126703,0.20542647917241266,0.25035869078262946,0.13602491813859982,0.3119102081369061,0.21134342895992742
0.16388003876254081,0.14425119499380065,0.30917195652374474,0.2434724394418496,0.17389989781064008,0.2978429916457016,0.2936755627860222,0.2187349427621784,0.2584225398850773,0.14847606641973138,0.320535613901697,0.22492980090477424
0.17767156628813938,0.15675051263526685,0.31794499349568245,0.2556890151947706,0.18543048226905287,0.3107340810510315,0.305857951392894,0.2316712850912407,0.26545361386556154,0.1611315201798208,0.3282954463613437,0.23807710877051055
0.1914155494213224,0.169320915486117,0.32553921840039973,0.26729561749126124,0.19655678844248223,0.32340209369245143,0.31769919872495245,0.24411260296379392,0.27137087399386695,0.17387520389697056,0.335078647999113,0.25065495516689
0.2049892081717673,0.18185248870853377,0.3318239574534243,0.2781677238348081,0.20716784329062785,0.3357243629624008,0.32908202125193353,0.2559355698354857,0.2761043916036904,0.18659251880398464,0.3407734522146431,0.2625324979346251
0.2182687560765503,0.19423377230888578,0.3366678504641548,0.28818068755453163,0.21715549198877251,0.347580336521756,0.3398878641356745,0.2670164358134168,0.27959534809263986,0.19917034288836866,0.34526738332394524,0.27357845014538495
0.23112940020014727,0.20635176113772868,0.33993885083586156,0.2972097378051874,0.22641439792778284,0.3588515762998285,0.34999690123011434,0.27723102765614027,0.28179603492223504,0.21149703089233018,0.34844725655940284,0.2836610801017961
0.24344534113443317,0.2180919048898037,0.3414975742769756,0.3051299795671649,0.23484204271410872,0.36942175849436665,0.35928803508129376,0.2864547487736626,0.28266985361790725,0.2234624143127781,0.3501968985711593,0.29264821133744345
0.2550897729986822,0.22933810810403882,0.3411877757249459,0.311816393646488,0.24233872616978375,0.3791766735715547,0.36763889692735496,0.294562579227443,0.28219131576899925,0.23495780140132358,0.3503736902826025,0.30040722261686886
0.2659348834395673,0.23997273016354834,0.33909487231182806,0.31714383667481544,0.24880756633242526,0.38800422626601305,0.374925846698542,0.3014290757303934,0.2803460430287652,0.24587597716427914,0.3490294211736298,0.306805047935571
0.27585185363116105,0.2498765852956325,0.3353589597432732,0.3209870411094397,0.2541544994552343,0.3957944355807981,0.38102397301720065,0.30692837164687914,0.2771307671143713,0.2561112033626589,0.34628216438981074,0.31170817652000776
0.2847108582749355,0.2589289425717785,0.3301182058966543,0.32321939567995145,0.25828828000699466,0.40243943478740296,0.3858070931977777,0.3109341769927179,0.2725533298068948,0.265559218512179,0.3422484212090594,0.314982652827593
0.2923810655997608,0.2670075259076592,0.3235088508210669,0.32375005418327163,0.2611204806720747,0.4078334714257561,0.3891477328891061,0.31331977843518055,0.26660871409585524,0.2741172378832571,0.3370431210416356,0.31649934800178153
0.29873063736190747,0.27398851406313385,0.31566520673732823,0.32263899886167435,0.26256549235042576,0.4118729073042227,0.39093572643249414,0.3139279131728001,0.2593596985979569,0.28168395350101255,0.3307796214301447,0.3162547934838807
0.3036267288450449,0.2797465406422485,0.30671965803797785,0.3199766777787353,0.26253819426637903,0.4144562184996039,0.391184831065236,0.31269716763711086,0.2509901511900137,0.28815953414526674,0.32356970804953733,0.3143310089465418
0.306935142247582,0.28415469409323524,0.29680266128727745,0.31585728471110136,0.26097593606171604,0.4154839951982808,0.38995421615037934,0.3097671444166316,0.24167721327443778,0.2934456253505422,0.3155235947071092,0.3108156251731272
0.3085514190952855,0.28708469147411725,0.28604274522121076,0.3103787591484913,0.2579647149544335,0.414859191571717,0.3873091251134612,0.30528102004360597,0.23158821759729675,0.2974453494060638,0.30674992334250206,0.30580125428015903
0.3085080878843232,0.28846939522739773,0.2745665107474834,0.30364278629369534,0.25361882268967556,0.4126246834767987,0.3833208754425072,0.29937920560115616,0.22088068824831375,0.3000633053557576,0.2973557640277023,0.29938548971731727
0.3068731455208272,0.28834895641857833,0.2624986309455236,0.29575479706257546,0.24805204816080864,0.40889265045754253,0.3780668586880324,0.2921993467232811,0.2097023406608681,0.3012055689982516,0.28744661496704255,0.29167090626744197
0.3037205652498674,0.2867784872848557,0.2499618510664813,0.28682396808406535,0.24137767740942204,0.40377602180201755,0.37163054046304006,0.2838763235948578,0.19819108161199392,0.3007796928868757,0.27712640249720016,0.28276506004653185
0.29913029665545177,0.2838195334350687,0.23707698853322873,0.2769632217001701,0.233708493625327,0.3973884765423456,0.3641014604430235,0.2745422509516413,0.18647500922238155,0.29873472185970856,0.26649748108719823,0.2727804885037446
0.29318826566052636,0.2795400738496979,0.22396293294036027,0.26628922596596655,0.22515677714655752,0.3898444434547011,0.3555752323659642,0.2643264780802637,0.1746724129563765,0.2951634282811843,0.25566063333840505,0.2618347104213973
0.2859863745269754,0.2740145208808652,0.210736646054192,0.25492239464960315,0.21583430545936988,0.38125910105931154,0.34615354403233295,0.2533555888182352,0.16289177362198026,0.29018571293299683,0.2447150699845347,0.2500502259149657
0.2776225018556205,0.267323720252335,0.19751316181276285,0.24298688723229966,0.2058523531982429,0.37174837762045626,0.33594415730508964,0.2417534015539437,0.1512317633708495,0.28392138021363156,0.23375842989164586,0.23755451643308537
0.268200502586222,0.2595549510595135,0.1844055863258331,0.23061060890834822,0.19532169214587788,0.36142895114646817,0.3250609081096827,0.22964096922665442,0.13978124569829678,0.276490203689594,0.22288678005814372,0.22448004475754998
0.25783020799747763,0.2508019257694485,0.1715250978748857,0.2179252105851118,0.18435259123319853,0.3504182493897327,0.3136237064340503,0.21713657932651095,0.12861927544329024,0.2680119260954084,0.21219461561477784,0.21096425500331317
0.2466274428844682,0.2411647899073144,0.15898093635996588,0.20506608022310913,0.17305482633204491,0.33883445125338685,0.30175852781926216,0.20435576178499257,0.1178150701971455,0.2586062664873974,0.20177485700085482,0.19714956891625365
0.23471433037877645,0.23075011649297086,0.1468802160299593,0.19217218916258896,0.16153785403015508,0.3267965117537246,0.289597262357828,0.1914114289940279,0.10742750294017712,0.24839304719013275,0.19171879985505588,0.18318332017567643
0.22221925592356775,0.21967090669847225,0.13532794761491182,0.17938611028530008,0.14991079109371006,0.3144241590700346,0.2772777325397106,0.17841385925794875,0.09750516200402433,0.2374921787933726,0.18211612093755028,0.16921776215871825
0.20927659124159617,0.20804659488608299,0.12442720790943854,0.16685415717453686,0.13828225710418116,0.30183787193971984,0.2649438299929655,0.16547056999820267,0.08808681051808631,0.22602354519481183,0.17305492350671522,0.15541012743317867
0.19602668439455456,0.1960030487897092,0.11427901794025642,0.15472638912666584,0.12676036879126223,0.28915887884423674,0.252745520408137,0.1526863131871148,0.07920140295541798,0.21410699946016543,0.16462173895327384,0.14192262990001633
0.18261585978307285,0.1836725695148984,0.10488191044218331,0.14315711705590659,0.11545274003286986,0.2765091580090938,0.24083884353825835,0.14016307534788758,0.07086808513272977,0.2018623638231671,0.15683765527636986,0.12892246479334898
0.16919641814671962,0.17119389153884107,0.09606221322916605,0.13231292421973218,0.10446648185514251,0.26401143740385274,0.22940521555310023,0.12800007755460172,0.06314422868013887,0.18940942968557062,0.1495618520484078,0.11689441081805906
0.1559266365640012,0.15871218271036824,0.08761988267453152,0.12218850691641903,0.09390820243244187,0.25178919474212735,0.21886059316915035,0.11629377543221522,0.05611961575213593,0.17686795761714813,0.14262470908424688,0.10637140974085586
0.14297076845236192,0.14637904424995368,0.0793193926459889,0.11269277440074309,0.0838840070873512,0.23996665748158472,0.2091625929598446,0.10513785915656403,0.04929696852140405,0.16435767735569193,0.13582796550029308,0.09690934184598406
0.13051257857449267,0.13435251074971286,0.07088973450562866,0.10371414858961116,0.07450021964060803,0.22866880282394433,0.20011207773010442,0.09462325345436158,0.04216909873258701,0.15199828780701335,0.12894463635812822,0.08807485770063009
0.11905530041686273,0.12284292701973556,0.062024417109923465,0.09512056406206174,0.06576697470707502,0.2180220346356944,0.19151747622422532,0.08483819061106768,0.034306048006658776,0.1399094570449428,0.12171901266450944,0.07947946622409054
0.10858742192245067,0.11214381030930698,0.05238146680972773,0.0867594680592641,0.05757811218216835,0.20808562792333773,0.1831947831258769,0.07587102390955065,0.025355087840923066,0.12821082231133024,0.11386666137136932,0.07077953468777205
0.09885320629734726,0.10216568773949383,0.041583427450277474,0.07845782048451896,0.04980217408662586,0.19878543713533417,0.1749675590581021,0.0675125177435422,0.015040719609013417,0.1170219900160451,0.10507442537581577,0.06167628871519191
0.08961141060005458,0.09277068462534827,0.029217360371190767,0.07002209390325859,0.04228529677860329,0.19001237718541428,0.1666669305833183,0.05942223455469628,0.0031646745608933237,0.10683377756696749,0.09500042352013256,0.0519158122819769
0.0806352857414852,0.08381947864834968,0.014834844406467661,0.06123827354304599,0.03485121095367395,0.1816317476734158,0.1581315902033163,0.051268167877422305,-0.010394086177144154,0.09811700256537038,0.08327405059177848,0.04128904771586431
0.07171257648496307,0.07517129985640465,-0.002051614974520275,0.0518718572935755,0.027301241644829267,0.17348323288528528,0.14920779635926082,0.04272674233888507,-0.025679371602475718,0.09034978509249103,0.06949597732338818,0.029631795696701328
0.062645521446223,0.06668393066384683,-0.021882224056473158,0.0416678557066731,0.01941430822247818,0.16538090179307674,0.13974937343169055,0.03348281365900554,-0.042657760836148285,0.08304455391779121,0.05322423261240862,0.016824715256445723
0.05325085309341062,0.05821370585143729,-0.04390419090828514,0.030350791996295454,0.010946924394447388,0.15711320805495232,0.12961771174051787,0.023229668650459844,-0.06121860312287929,0.07577245062124925,0.03489462916756542,0.002793323779164842
0.04335979774708255,0.04961551256636412,-0.06682257070231283,0.01762470203853083,0.0016331982059816748,0.14844299001518177,0.11868176754502925,0.011669025218679954,-0.0812536057359433,0.06816332959336055,0.015635955073249212,-0.012492002998963464
0.03281807558020679,0.04074279032224272,-0.0891409841500817,0.003173134371598666,-0.008815167960256725,0.1391074707041435,0.10681806304388462,-0.001488967638146491,-0.10204179372048774,0.05990575803513712,-0.003265396817810444,-0.02901603098965129
0.021485900618161722,0.03144753099911595,-0.1091616175022859,-0.013340849804150462,-0.02070887738418766,0.12881825783832324,0.09391068637511807,-0.01652572982907635,-0.12093961102809218,0.050747015958107954,-0.020367052466624996,-0.046718667752500644
0.009237980738737115,0.021580278843453326,-0.12498522254878801,-0.03227467662623456,-0.03438103900831307,0.1172613438203149,0.0798512916161374,-0.033714250170410694,-0.1353191628333442,0.04049309618431863,-0.034070656647946576,-0.06549496249500329
-0.004036482327866537,0.010990130468151938,-0.1345111166186196,-0.05505558780995551,-0.05018716743771729,0.10409710573882015,0.06453909878372437,-0.05331908638569517,-0.14279088400314,0.029008704346331616,-0.042621872950268175,-0.08519510607254091
-0.018433792999037635,-0.00047526514746372564,-0.13543718257998075,-0.08205206502816885,-0.06845173292898271,0.08896030536864924,0.04788089383403448,-0.07571545881738255,-0.14120353909668423,0.01621725888722605,-0.04411038377582343,-0.10562443098838514
-0.03403576183975356,-0.012969706657642407,-0.12525986884024,-0.1089612867552984,-0.08850180904437481,0.07146008917071954,0.02979102866259699,-0.09964599266592866,-0.12864422236549028,0.0021008910605982037,-0.036469890340586814,-0.12654341139369724
-0.050909705562580024,-0.026648440350204566,-0.10127418934593688,-0.1318284779823802,-0.10878626501978039,0.05067180262972188,0.010191421104316393,-0.12276636067673737,-0.1034383577533817,-0.013299555069438357,-0.017478112674274873,-0.14766766308752752
-0.06910844702767426,-0.041668160146545744,-0.060629630542875464,-0.14723108063569684,-0.1276584054059751,0.026701789011151656,-0.010637151572021577,-0.14278783630273198,-0.06414969889648633,-0.02988452262825582,0.015243210379658494,-0.16830282743837227
-0.08867031524277996,-0.05818700760163216,-0.0020007830087799706,-0.152278753576769,-0.1433972168180757,0.0023769701159201922,-0.0301116290386614,-0.15747927480840906,-0.009580329123244309,-0.04749574193070682,0.06342739429311274,-0.18501066440568395
-0.10961914536323082,-0.07636457190400349,0.07598524816412915,-0.1446133726023619,-0.15420736793554518,-0.019602198210648618,-0.0449904875910951,-0.16466711326984368,0.06122933854559692,-0.06591623048112812,0.12784216972894652,-0.19362464679761326
-0.13235916687449592,-0.09636199844303359,0.1739117277318064,-0.12240903044448291,-0.15821920950219104,-0.03675596479980773,-0.05241395852461802,-0.1622353705746881,0.14900056139698092,-0.08487029297334003,0.20909416664366723,-0.19065234489675925
-0.15656156519366435,-0.11861503922947457,0.2907486602480088,-0.08437203677038255,-0.15348877432616542,-0.04682528315938767,-0.0499070002742161,-0.1481256474221716,0.25501421800606044,-0.10402352129064539,0.3064538787669425,-0.17328051051577614
-0.17737667667532175,-0.14062872989842917,0.4238527900642962,-0.029740918182553713,-0.13799777727996548,-0.04777181147379559,-0.035379298414565295,-0.120337126323101,0.3804924338185349,-0.12298279450583087,0.4178437397464309,-0.139375076997373
-0.1902695042236084,-0.1586162150155592,0.5689676013300309,0.04171358178126793,-0.10965361530043306,-0.03777791260401645,-0.007125265660032187,-0.07692657159985986,0.5160408970180745,-0.14120541088129565,0.53983812314778,-0.08748115921431383
-0.19149664317282006,-0.1693030024138346,0.7202233179923785,0.12968850264810444,-0.06628936738875464,-0.015246654087611708,0.036175958135326564,-0.016008329386409323,0.6519397707005347,-0.1561292463362049,0.6676633424546276,-0.016823053569417604
-0.17810628128740813,-0.16992696319353426,0.8701369037963065,0.23334866700973445,-0.006298625580795201,0.021198191861279494,0.09546050597776444,0.06424567237171262,0.7796393997635515,-0.16392628813093357,0.7951976510686016,0.07269576200444167
-0.14793819876197972,-0.1582383317222452,1.009612062284585,0.3513266805226947,0.07070227868093294,0.07271214835194116,0.17127978373384356,0.1662861366091945,0.8917603109065457,-0.1613586589485488,0.9149712423093198,0.18049262804433508
-0.09962376822129773,-0.13249970563486332,1.1279392367977867,0.48172293190827875,0.1642621199634595,0.14023003381708,0.26380047013043656,0.2887493976745333,0.9820932126307189,-0.14582355735602726,1.0181662494143902,0.3053057035572788
-0.03258595472028034,-0.09148604583359275,1.2139080645508091,0.6221055929525378,0.27269338889585504,0.22446596201282576,0.37280451675472587,0.42575713394948317,1.045598995239057,-0.11535325780425487,1.0949167508527002,0.44519396602023376
0.05296068425599799,-0.034484676487946384,1.261352102550684,0.7691822263434906,0.3930718073662193,0.32591334201873107,0.4987458677908743,0.5711123363550513,1.0784087308363266,-0.06861511062802733,1.1389086474436907,0.5978123439915642
0.15600999879230804,0.03870471496525453,1.2673983116775005,0.9134446190396933,0.521236328521681,0.44484672589610197,0.641228061142088,0.7183466843128771,1.0778236733290787,-0.004911542046049789,1.1479842196424799,0.7584813014076018
0.27476424654326403,0.1277700778218798,1.2316634348080988,1.0419466916377664,0.651789136768398,0.582085734286482,0.788087768647146,0.8607205457452336,1.042315258425645,0.07581994583906329,1.1219095249815447,0.9140206594832442
0.4066340927333252,0.23188699811049168,1.1562823676166816,1.1443003882825729,0.7780956477715579,0.72962861819137,0.9276860131415398,0.9912229770750264,0.9715251036361413,0.17300677504078757,1.062360769135837,1.0522565697585642
0.5482386101567949,0.3497186985923425,1.0459081585748136,1.212857418288742,0.8922845084553773,0.875966351913046,1.0503357208608095,1.1025717232257948,0.8681029903147156,0.2854412916886893,0.9729243059227829,1.163461864144274
0.6954052791778201,0.47941603876137745,0.907712008951419,1.2427092561406714,0.9852475970031002,1.011168796137204,1.1483017214405455,1.1872132176217118,0.742454365184511,0.41128076602842556,0.8590966373022858,1.2403560549217252
0.843152196393141,0.6185066318930014,0.7513832728127846,1.231687141492528,1.0466838486272023,1.1268846979329556,1.2158007479163868,1.237322582187581,0.6041776588705001,0.5481054670620199,0.7282844133767238,1.278105334742909
